32,32,32
96,-20,-124
110,16,-128
127,127,-115
127,115,-87
84,89,-39
65,81,-10
43,59,51
-36,69,41
-76,91,27
-62,99,21
-30,84,23
57,77,-6
103,84,-21
127,74,-21
124,61,-11
102,48,-15
74,20,-19
66,5,-16
64,-53,-15
64,-94,-19
92,-126,-49
92,-63,-67
118,-26,-81
127,127,-90
127,127,-67
94,127,-48
70,116,-29
16,83,9
-56,61,12
-91,55,-1
-98,79,-8
-78,93,-2
-30,78,4
9,86,11
98,127,17
127,122,26
127,113,29
89,72,10
82,51,7
57,11,10
58,-9,14
64,-67,12
79,-95,-6
84,-69,-6
93,-22,-25
123,10,-30
127,127,-30
119,127,-37
94,126,-23
49,97,-3
33,79,-1
-13,57,5
-38,62,-2
-78,79,-11
-75,84,-22
-50,78,-6
43,102,15
104,109,24
127,107,44
127,89,45
99,44,23
68,13,10
57,1,10
40,-40,17
40,-71,4
47,-114,-22
73,-90,-6
97,-46,-25
127,42,-9
127,127,4
115,123,-14
91,117,-6
38,91,7
15,73,6
-42,58,-7
-66,60,5
-66,71,7
-48,100,-8
-32,97,-5
56,127,-6
127,127,24
127,127,19
104,73,7
95,46,9
69,5,13
59,-15,23
51,-70,16
63,-105,-8
70,-84,-9
81,-41,-43
83,-7,-52
97,127,-61
79,127,-63
32,127,-29
16,108,-22
7,79,-26
-28,45,6
0,34,20
-37,25,-25
-19,33,-20
-24,49,-19
54,96,-1
75,127,30
17,104,21
16,108,34
47,79,50
44,56,60
42,1,42
18,-36,20
4,-52,4
-11,-22,-11
1,9,17
70,105,35
115,109,44
57,94,-17
61,103,3
65,106,26
84,82,33
29,50,3
-1,17,-28
-18,-7,-23
-11,1,-31
-16,32,-10
-15,47,16
71,97,-42
101,115,-21
101,91,8
124,78,5
93,50,2
22,-5,20
3,-38,12
0,-61,-11
-5,-31,17
27,9,30
42,7,-15
86,33,3
127,109,30
122,78,17
85,103,43
83,81,27
49,50,-3
1,29,-16
-19,27,-22
-50,29,-22
-48,43,-25
-32,55,-27
-10,62,-16
71,90,-4
127,125,24
127,110,23
99,58,31
78,40,33
57,11,34
47,-5,41
37,-57,37
52,-90,20
66,-87,9
93,-46,-18
127,-23,-19
127,78,-20
127,127,-20
113,116,-26
54,100,-11
28,88,-5
-13,66,-13
-37,72,-5
-69,75,3
-52,75,-2
-38,75,2
21,90,0
81,117,17
127,127,35
127,96,27
118,46,28
94,25,25
72,6,20
44,-62,19
45,-87,16
61,-99,-15
67,-76,-23
82,-12,-38
127,87,-7
127,127,-12
101,114,-19
81,107,-7
40,78,-12
11,63,-10
-46,55,-3
-68,56,1
-71,68,-10
-38,82,-20
-19,81,-25
96,127,-19
127,127,14
127,123,22
95,55,9
80,34,12
52,3,25
45,-20,27
50,-80,37
59,-87,38
68,-62,13
70,-37,-6
127,-7,8
127,127,3
127,127,-16
93,127,-13
39,103,6
11,83,7
-57,62,-6
-85,81,3
-91,82,2
-77,80,0
-5,92,16
114,127,34
127,122,43
124,80,43
103,58,33
76,17,25
64,-9,25
60,-68,36
70,-101,19
67,-83,6
85,-46,-5
102,-26,-7
127,68,-4
127,109,6
127,127,2
43,116,-10
1,98,-9
-78,66,8
-99,69,17
-118,97,-6
-101,110,-7
-43,112,0
2,127,-18
25,127,-10
71,127,-17
80,127,-31
86,127,-35
102,127,-22
127,57,21
127,-22,13
127,-38,23
127,-23,36
127,1,29
91,65,12
63,127,-5
43,127,-41
22,127,-23
21,127,-14
15,127,-4
-3,102,4
-38,81,8
-49,118,-5
-57,118,-8
-47,86,-9
-34,54,-11
22,8,51
59,2,72
95,-10,90
66,-26,75
54,-24,63
19,-32,43
7,-48,31
-1,-82,3
-4,-79,-7
-3,-50,-12
33,-19,-68
119,48,-128
127,69,-122
73,83,-128
11,60,-55
35,43,-70
39,30,9
1,29,31
17,33,23
-4,71,25
-5,75,20
50,86,-18
127,84,-2
127,82,11
127,45,22
96,24,14
52,-12,1
44,-34,8
45,-84,19
51,-102,3
61,-80,5
91,-34,-17
119,-13,-19
127,54,-3
127,84,6
127,83,13
72,73,15
51,59,17
18,41,20
-7,50,22
-40,76,17
-48,82,-6
-27,76,-19
90,71,-3
127,58,15
127,43,25
127,34,25
117,-9,23
96,-17,20
38,-22,14
23,-27,20
17,-43,14
12,-84,-25
15,-85,-25
61,-56,-18
118,-46,-18
127,5,-20
127,64,13
127,63,7
59,65,7
37,64,10
-6,72,24
-47,70,55
-58,73,27
-38,74,-2
-7,74,17
97,78,32
127,71,41
127,41,54
118,17,38
93,8,30
51,-8,20
40,-19,16
47,-56,16
62,-78,21
78,-91,-4
108,-53,-15
127,-23,-9
127,64,1
127,99,15
127,119,18
92,109,21
26,80,25
-31,68,21
-48,69,23
-67,78,17
-63,78,5
-37,73,12
-3,75,33
111,87,71
127,98,55
127,74,40
86,23,27
75,8,25
79,-22,42
79,-45,50
68,-114,19
75,-91,7
79,-61,1
124,-16,-16
127,20,-28
127,125,-24
120,108,-17
86,100,-7
33,72,6
12,64,3
-30,73,7
-45,81,15
-55,87,0
-40,78,-2
-13,79,5
127,108,30
127,113,51
127,53,31
127,27,36
84,9,40
35,-15,15
26,-38,5
27,-106,-25
31,-124,-31
63,-66,-15
90,-49,-18
127,9,-7
127,117,14
127,117,9
74,100,15
57,83,15
33,66,19
10,59,13
-31,72,8
-60,66,-11
-48,75,-13
11,67,10
71,61,36
127,40,68
127,20,77
127,-3,64
73,-15,50
44,-13,38
8,-21,15
-1,-29,9
-6,-54,-17
6,-63,-25
59,-71,-13
116,-65,27
127,-53,68
121,5,92
95,10,81
46,49,66
9,63,57
5,65,52
-12,68,44
-19,70,39
-43,65,29
-16,60,38
40,43,69
51,19,101
84,-2,114
80,-6,114
71,-10,101
42,-34,52
37,-45,25
23,-59,-25
-1,-55,-40
-7,-61,-51
15,-64,-6
58,-50,48
100,-29,100
109,-12,91
76,-15,94
56,18,89
35,23,62
14,31,30
6,39,20
-6,50,-5
-15,48,-12
-14,61,-33
37,73,-2
125,87,4
127,94,35
127,75,42
121,39,21
96,21,14
48,5,8
34,-13,10
41,-30,7
52,-94,-17
60,-109,-23
77,-65,-27
127,-24,-16
127,26,-14
127,101,0
127,93,1
82,86,8
53,78,10
-5,66,4
-48,71,-2
-58,68,2
-48,75,-16
-33,70,-18
21,67,-14
127,81,-12
127,97,45
127,45,22
104,17,12
67,-5,15
48,-10,16
23,-31,19
21,-51,6
19,-94,-59
32,-72,-46
47,-58,-42
127,-26,-23
127,29,-12
127,61,17
127,69,18
68,81,0
2,71,-5
-28,77,-13
-61,89,-18
-63,88,-21
-39,88,-32
49,88,-17
125,95,1
127,72,31
127,54,41
127,16,18
99,2,16
50,-11,12
17,-41,2
6,-67,-10
9,-105,-28
13,-82,-7
33,-52,-21
81,-33,-24
127,59,22
127,109,35
127,104,22
54,86,11
23,71,10
-33,59,-9
-45,62,-15
-73,67,-37
-55,72,-41
-38,70,-28
56,73,-16
127,95,-26
127,85,10
127,62,12
114,19,26
45,-7,3
27,-20,-4
15,-69,1
12,-90,5
14,-80,10
30,-67,0
127,-41,-33
127,127,-27
127,127,-25
126,122,-19
74,108,-12
-3,62,-1
-63,47,-8
-79,46,-3
-81,48,-14
-62,60,-19
-24,76,-4
14,92,0
127,127,27
127,76,53
127,34,52
58,-2,28
33,-19,14
12,-51,9
13,-64,11
3,-81,-9
5,-67,-25
8,-56,-23
74,-18,2
127,81,10
127,127,14
127,127,11
46,77,19
-8,38,12
-34,30,9
-73,29,-9
-79,37,-14
-52,79,-20
-38,90,-21
52,116,-10
127,122,10
127,104,18
121,34,35
84,14,18
48,-10,8
38,-25,22
24,-79,16
6,-105,1
8,-89,2
26,-59,-18
87,-45,-25
127,127,-36
127,127,-2
127,123,-17
31,86,-12
2,72,-6
-53,64,3
-73,58,4
-96,57,-17
-46,80,-10
-27,89,2
97,115,1
127,127,3
127,81,24
127,38,20
75,-7,12
41,-42,8
34,-59,6
21,-99,-14
18,-119,-13
51,-97,-28
50,-74,-44
127,-23,-25
127,113,1
127,120,-7
106,85,3
73,72,4
23,54,5
1,55,3
-34,86,8
-63,82,-8
-59,80,-16
-15,67,3
42,72,7
127,100,59
127,84,66
127,34,50
66,-3,32
43,-7,24
19,-26,20
16,-47,20
11,-108,-26
7,-120,-43
70,-89,-39
127,-40,-22
127,33,-7
127,102,9
127,103,7
69,93,9
18,76,6
-4,73,6
-53,83,15
-68,78,12
-59,74,-7
-36,69,-3
76,81,20
127,104,58
127,77,56
110,28,45
85,12,41
54,-4,32
44,-18,31
36,-93,24
48,-128,-18
68,-121,-18
109,-68,-46
127,-33,-34
127,127,-22
127,112,-21
121,114,-8
60,78,0
39,63,5
9,68,20
-22,85,20
-65,82,5
-68,77,-1
-31,75,-6
92,92,26
127,104,54
127,78,67
127,62,59
88,24,42
37,-6,17
21,-23,12
21,-83,4
17,-120,-15
56,-112,-19
91,-80,-13
127,-7,13
127,127,28
127,127,4
114,119,9
83,103,12
20,60,13
-9,51,7
-51,58,19
-71,56,37
-63,62,29
-29,73,18
14,91,28
127,127,42
127,123,49
117,78,39
80,36,43
62,25,52
40,-3,66
32,-36,55
33,-112,11
52,-128,-11
113,-96,-23
127,-34,-18
127,-2,-12
127,127,6
127,126,11
116,124,12
76,112,16
9,87,7
-39,88,13
-62,88,8
-76,96,-3
-63,95,-10
-41,74,-10
-9,84,-4
127,127,4
127,127,27
127,123,28
108,59,20
86,28,18
73,-40,21
95,-116,15
100,-121,6
96,-63,-10
92,-43,-16
111,8,-22
127,83,-14
127,127,-3
82,127,-14
49,127,-6
-16,79,11
-51,54,-3
-81,40,-11
-74,42,-2
-63,65,-9
-33,52,-13
-12,74,-6
70,127,-6
124,127,4
127,127,14
121,127,18
74,51,12
73,3,40
76,-19,39
72,-43,34
70,-38,29
60,-69,16
70,-59,14
127,38,9
127,127,-38
127,127,-36
93,127,-26
55,108,-22
-11,71,-26
-67,70,-38
-81,70,-48
-75,88,-40
-54,86,-27
19,103,-17
92,117,0
127,127,35
127,103,28
97,43,26
53,-8,23
46,-34,28
38,-82,28
38,-115,13
71,-94,18
99,-49,-6
127,-27,-16
127,127,-13
127,127,-16
113,127,-27
78,107,-10
17,76,5
-52,53,-13
-74,51,-16
-76,61,-16
-58,73,-15
-25,84,-18
9,100,-22
127,127,20
127,113,28
110,68,16
81,20,14
73,4,18
60,-40,37
50,-82,41
48,-112,34
84,-77,24
97,-51,12
127,0,-10
127,110,0
127,127,-37
127,127,-31
67,110,-9
-7,71,-12
-36,55,-15
-66,50,-1
-70,56,2
-65,69,-13
-41,69,-11
5,78,-2
127,127,11
127,127,28
127,96,25
99,63,20
58,11,18
59,-34,38
59,-60,45
66,-112,28
78,-112,17
92,-71,-6
98,-53,-22
127,46,1
127,127,-22
127,127,-25
72,120,-8
44,105,-5
-32,77,-22
-61,76,-29
-83,94,-27
-59,90,-24
-38,83,-16
40,109,-14
127,127,15
127,127,39
127,90,24
90,31,23
62,2,32
48,-21,34
34,-84,40
37,-113,30
71,-106,10
97,-55,-15
113,-39,-25
127,89,-3
127,127,-17
127,127,-27
96,127,-15
39,98,-6
-22,71,-14
-48,66,-17
-75,77,-9
-75,85,-13
-42,88,-17
-18,87,-14
109,127,-14
127,127,21
127,106,13
95,43,9
84,27,9
65,6,15
52,-20,15
43,-95,12
64,-128,0
76,-104,-2
119,-53,-18
127,-16,-11
127,127,-19
127,127,-28
100,127,-11
46,101,1
11,80,-2
-46,55,-12
-64,53,-9
-80,73,-16
-76,85,-28
-31,82,-28
87,113,-22
127,120,-3
127,82,8
127,62,17
97,23,25
67,10,22
35,-7,38
22,-50,50
13,-82,29
38,-98,14
80,-79,20
127,-38,-16
127,94,-1
127,124,-9
111,101,-13
88,97,-7
31,80,-7
0,71,-12
-51,68,-10
-72,78,-9
-68,79,-15
-41,78,-18
-7,86,-14
127,118,10
127,112,31
127,78,30
95,32,19
83,17,17
65,-14,25
46,-43,25
29,-92,21
29,-104,16
70,-84,13
114,-41,-21
127,-2,-33
127,127,-27
127,127,-37
84,107,-26
52,92,-13
3,63,-11
-57,54,-12
-72,57,-4
-71,75,-7
-60,81,-16
-9,75,-6
55,94,2
127,115,25
127,84,36
127,63,36
80,27,30
58,11,26
37,-25,43
33,-51,47
21,-101,11
48,-90,-11
87,-79,-26
127,-19,-53
127,52,-61
127,123,-57
109,114,-33
83,102,-21
24,72,-11
-4,64,-11
-53,74,-3
-67,83,2
-71,80,-8
-20,71,1
30,86,14
127,113,40
127,104,43
120,64,45
89,45,38
62,9,37
50,-35,53
42,-66,46
23,-125,-12
47,-113,-18
101,-82,-47
107,-65,-66
127,22,-59
127,127,-53
127,122,-45
83,113,-17
53,104,-13
-11,83,-14
-39,80,-13
-64,82,8
-62,84,7
-51,74,2
6,85,14
72,127,22
127,127,15
127,125,14
125,55,25
93,21,9
74,7,3
48,-41,5
47,-77,6
47,-128,-18
69,-83,-19
85,-62,-28
127,-2,-19
127,122,-13
127,127,-34
107,127,-31
53,106,3
-1,67,3
-28,56,1
-66,44,2
-67,54,8
-48,76,2
-35,84,-1
30,99,1
127,127,10
127,118,21
114,61,19
93,39,18
68,9,16
55,-9,17
53,-73,32
52,-114,16
63,-101,3
85,-53,-5
99,-36,-13
127,65,-15
127,127,-25
127,125,-30
70,98,-10
39,83,-9
-17,54,-6
-40,46,-1
-65,50,0
-55,86,-7
-44,91,-13
1,100,-7
47,125,-14
120,127,-21
127,127,4
119,85,0
96,58,0
94,35,1
92,-17,18
92,-48,22
84,-102,4
87,-91,3
99,-56,-16
127,5,-30
127,100,-41
127,127,-53
127,127,-74
49,127,-33
7,104,-14
-63,78,-2
-78,80,32
-80,86,24
-66,100,3
-54,93,-7
29,115,-1
93,127,2
127,127,6
117,89,4
93,62,0
86,5,-4
94,-17,13
70,-64,20
61,-86,19
55,-76,21
50,-36,5
58,-26,-14
127,61,-6
127,127,-33
127,127,-68
103,127,-39
30,114,-6
-55,86,-10
-83,78,-3
-93,75,16
-82,74,17
-51,68,4
-33,78,-9
71,127,-9
127,127,15
127,127,7
102,76,5
86,53,6
56,8,11
54,-68,30
55,-120,19
84,-117,8
95,-87,7
122,-39,-24
127,-4,-22
127,127,-49
120,127,-33
94,127,-21
28,102,-9
-7,81,-10
-69,54,-8
-89,51,-4
-86,82,3
-55,99,-9
-33,93,-10
63,127,-23
127,127,-32
127,127,-49
127,94,-28
122,32,-1
84,-15,9
84,-35,39
79,-63,12
73,-44,56
101,-49,64
105,-57,71
120,-21,52
127,127,-17
127,127,-34
127,127,-52
114,126,-45
50,81,-30
-18,55,-45
-56,69,-64
-121,88,-121
-109,94,-96
-58,83,-16
35,116,13
127,127,121
127,67,88
74,39,55
28,-13,39
9,-28,32
-16,-36,15
-19,-41,11
-14,-38,14
-22,-17,6
-36,-10,13
-19,-8,72
5,-9,69
73,31,79
118,74,94
127,112,68
126,73,49
127,47,55
127,120,34
127,127,-8
88,120,-39
51,82,-46
-4,23,-27
-26,2,-6
-35,3,-6
-30,11,3
-27,5,10
-14,6,72
-3,-4,79
-1,13,64
77,65,82
85,73,68
89,53,56
108,36,60
127,12,71
127,30,54
108,44,38
55,36,4
39,16,-3
23,-3,5
9,-12,6
-9,-21,5
-12,-15,6
-11,-15,8
-6,-7,21
0,-3,30
34,14,63
59,36,89
60,56,87
102,33,106
127,27,104
127,26,95
127,13,69
127,28,30
115,34,-30
58,10,-55
-9,-3,-34
-53,-15,-43
-53,-18,-16
-48,-2,-10
-10,16,5
26,28,43
35,30,56
48,27,82
50,30,90
45,25,108
65,17,127
67,20,127
89,54,127
95,86,104
81,99,19
65,61,-13
57,9,-2
22,-14,-9
-19,-30,-22
-24,-30,-12
-22,-16,12
8,4,28
12,8,32
19,15,45
24,26,57
16,43,47
30,25,76
52,32,100
124,80,127
127,101,127
127,70,120
116,43,84
49,-7,15
-6,-11,-27
-9,-11,-21
-44,-10,-36
-41,-12,-38
-25,-5,-26
-16,-3,-20
2,-1,-16
18,4,-4
36,19,24
88,20,89
127,17,125
127,76,127
127,103,127
109,74,76
127,47,23
127,30,-8
60,-3,-40
20,-16,-43
-30,-23,-29
-43,-20,-27
-37,-21,-20
-15,-12,-6
-8,-6,1
25,0,5
36,20,30
16,34,97
19,18,112
49,64,127
116,64,127
127,59,127
127,47,67
123,47,20
108,22,11
25,20,-8
-21,11,-12
-51,-10,-1
-52,-13,2
-37,-11,0
-36,-5,-3
-15,20,6
40,43,36
63,46,45
96,26,54
126,4,65
127,20,79
127,3,78
120,34,56
127,74,1
127,100,-50
77,45,-49
53,17,-31
-1,-20,-9
-20,-25,1
-50,-24,-4
-33,-15,-9
-22,-15,-6
-9,-18,-15
18,-13,-6
107,54,28
125,67,66
127,49,92
98,26,93
127,12,102
121,-16,45
100,-22,17
127,8,1
127,31,-32
108,16,-22
43,11,-3
5,8,-8
-27,-2,-10
-31,-1,-6
-33,0,-6
-33,1,-35
3,10,-23
56,28,5
80,30,2
92,12,16
86,6,29
75,-21,37
102,-35,19
127,-26,13
127,26,-14
127,61,-31
113,17,-27
82,5,-14
40,-5,6
-3,-7,8
-15,-10,8
-23,-13,3
-22,-10,-2
-18,-5,-11
-14,-5,-13
-15,-10,-28
4,-27,-24
56,-20,-9
127,83,25
127,127,21
127,70,42
127,53,40
97,13,23
69,-4,19
64,3,20
32,15,3
14,16,-5
1,10,-13
-4,-2,5
-8,-9,1
-15,-21,-14
-14,-29,-23
-14,-33,-28
-9,-35,-24
19,-18,-9
65,3,11
127,56,57
127,66,37
127,58,37
101,35,36
77,38,33
62,51,12
84,71,34
67,64,33
3,20,12
-13,-3,7
-16,-20,6
-9,-26,1
-13,-31,-24
19,-36,-16
26,-28,-17
16,-25,-21
19,-10,-12
81,31,23
127,94,33
127,89,45
127,62,39
96,46,29
78,43,19
106,62,30
80,85,34
46,65,16
4,15,3
-4,-14,3
-9,-21,-2
-11,-27,-3
-8,-27,-8
-9,-32,-28
-3,-27,-21
13,-20,-16
101,8,14
127,46,41
127,88,27
127,60,38
96,51,38
87,76,53
82,96,47
78,83,31
61,69,34
9,7,17
-2,-17,15
-13,-29,4
-14,-37,-11
-7,-38,-12
6,-30,-9
13,-23,-12
38,-5,-9
77,19,5
123,65,8
127,31,5
127,21,12
121,5,28
116,24,49
117,73,48
127,80,53
70,49,52
3,11,41
-17,2,28
-27,-6,14
-19,-12,8
-12,-22,-13
-5,-20,-21
13,-16,-28
48,0,-24
82,17,-9
127,39,16
127,35,15
127,-10,35
112,-14,51
127,0,86
122,41,61
104,58,53
50,39,57
25,25,45
-11,-8,7
-19,-13,-9
-10,-13,-10
-2,-14,-17
-1,-16,-21
12,-13,-17
33,-18,-11
98,-20,18
127,-28,32
127,18,21
115,8,25
91,11,18
86,24,56
88,37,69
127,13,64
93,56,77
70,26,71
13,-8,18
-7,-21,2
-2,-21,-14
-2,-23,-26
-6,-26,-35
0,-20,-28
4,-17,-25
28,-8,-8
71,-5,10
127,33,42
127,34,44
127,-2,53
96,-5,62
95,12,59
95,23,56
116,30,58
62,34,43
38,18,41
10,-9,25
-6,-25,12
-6,-26,6
1,-22,-1
8,-18,1
18,-9,-2
22,-6,-6
79,10,7
109,46,-2
112,41,3
92,7,29
86,-5,52
101,-13,73
111,-5,56
123,4,64
91,19,72
55,11,57
10,-14,26
-2,-11,18
0,-13,10
-1,-16,-6
2,-19,-6
18,-8,0
21,-4,0
43,-16,10
86,-2,27
78,-8,28
118,-3,67
120,6,67
87,-2,56
114,-14,58
97,-6,53
101,-5,52
69,-8,34
26,-10,10
20,-2,0
20,14,-6
2,17,-10
-3,14,-8
4,4,-7
21,-5,19
51,-15,76
71,-29,83
108,-53,69
115,-54,70
118,-55,85
118,-60,86
72,-55,45
74,-24,10
78,-13,-1
72,-12,-1
53,-10,3
23,-5,7
10,-2,6
8,0,3
-4,4,4
-8,2,5
-5,6,23
-3,12,37
7,-3,43
53,-48,56
102,-79,67
114,-102,74
101,-108,68
95,-82,15
55,-69,4
69,-59,26
51,-30,14
40,-11,27
61,-7,5
26,-3,-9
30,-27,-53
51,-27,-13
10,-6,-26
-20,-5,-4
-5,8,30
-13,-2,19
1,-19,16
8,-88,31
25,-96,22
63,-128,48
61,-102,34
47,-113,25
52,-97,26
52,-98,9
32,-86,-1
27,-70,-1
5,-37,-8
5,-3,1
5,-3,-4
3,-4,-14
9,-3,-9
9,-1,3
4,-5,13
11,-26,31
28,-71,46
33,-83,62
41,-88,76
49,-94,70
38,-93,43
49,-100,37
57,-90,21
42,-68,6
32,-46,2
0,5,-9
-12,18,-13
-25,29,-9
-26,27,-27
-7,19,-37
24,22,-30
35,24,-22
66,8,-21
81,-11,-8
126,-76,6
127,-58,4
127,-39,-6
127,48,11
127,85,-4
127,63,-61
117,40,-48
77,-6,-45
30,-29,-15
9,-40,-5
-12,-27,4
-19,-21,-3
12,-22,-67
40,-8,-40
11,5,-7
23,21,6
41,32,18
86,47,54
110,49,69
127,58,49
127,47,38
127,18,9
112,-44,-42
106,-51,-67
68,-34,-79
56,-26,-58
11,-7,-32
-10,-8,-6
-14,-18,-3
-12,-10,-1
-18,-4,3
7,14,6
12,18,6
42,42,9
55,16,12
94,-15,25
127,-45,51
127,-45,44
127,-19,49
127,-12,48
98,-36,-8
61,-23,-51
51,-21,-48
34,-15,-27
17,-11,-24
-12,-3,-17
-17,-5,-16
-16,-5,-12
-12,-3,-8
-3,0,-4
29,10,12
51,13,19
94,-24,50
127,-53,53
127,-28,64
127,0,66
127,2,36
124,-13,-36
98,8,-65
82,-18,-45
20,-21,-17
-4,-18,-8
-24,-17,2
-27,-14,4
-17,-7,4
-10,-2,4
10,11,5
26,19,8
58,29,31
76,13,53
90,-9,54
121,-49,66
121,-52,60
127,-92,21
127,-49,-16
127,-22,-40
111,21,-28
87,7,-22
39,10,-6
22,10,3
0,8,18
-23,3,14
-26,-1,10
-25,-4,7
-19,-2,5
-13,-10,-4
-12,-22,-14
7,-46,-25
121,-36,-31
127,-7,-42
127,36,-67
127,28,-52
127,72,-26
127,71,-17
32,63,8
-90,73,63
-114,95,98
-121,121,64
-93,124,63
-12,127,61
35,127,54
114,127,57
127,127,30
127,127,17
118,127,-68
114,127,-61
70,67,-80
73,36,-72
127,-34,15
127,-128,52
127,-125,94
127,-23,56
127,127,-11
127,127,-47
127,127,-100
127,127,-123
38,127,-82
-7,127,-67
-126,108,-44
-128,81,-48
-99,91,33
-23,73,74
-8,59,71
27,71,53
59,89,55
95,103,28
98,127,-10
125,127,-39
111,98,-12
86,67,0
55,8,44
53,-38,61
87,-94,116
127,-97,127
127,-58,67
127,10,-10
127,65,-49
127,127,-93
127,127,-106
73,127,-76
25,127,-56
-80,118,-39
-121,110,-1
-85,101,57
-32,64,66
-11,53,66
10,59,50
67,88,52
97,127,34
111,127,-20
119,127,-27
105,104,-22
107,68,25
76,7,36
62,-46,37
92,-60,38
127,-93,13
127,-84,2
127,-25,-14
127,23,-27
127,127,-39
127,127,-39
112,127,-43
45,127,-5
-2,127,17
-128,96,16
-128,78,26
-128,114,46
-49,118,35
-31,114,10
18,108,21
40,101,22
72,127,-18
78,127,-39
117,127,-42
118,116,25
117,86,12
69,25,46
73,-9,50
90,-65,70
103,-76,75
127,-66,53
127,-1,13
127,36,-8
127,127,-30
127,127,-40
46,127,-70
-37,127,-57
-75,118,-45
-103,55,9
-106,43,31
-94,49,25
-73,62,27
-58,39,13
-50,39,13
-24,71,10
48,127,-13
74,127,-32
97,127,-30
93,127,-17
70,62,12
70,4,50
76,-44,57
89,-79,112
107,-89,100
105,-50,47
107,-19,21
125,75,-14
127,127,-109
61,127,-128
34,127,-48
-19,127,-56
-128,64,-52
-128,26,-20
-128,36,36
-60,51,23
-33,49,28
-13,65,29
-9,73,26
0,124,-11
-1,127,-68
73,127,-68
90,127,-1
64,103,13
48,31,51
72,-20,94
122,-83,127
127,-69,127
127,-44,58
127,29,10
127,84,-13
127,127,-54
116,127,-128
71,127,-86
62,127,19
-7,114,45
-128,85,51
-128,68,86
-128,127,77
-63,125,55
-9,107,-10
40,80,-23
48,80,-36
52,127,-92
62,127,-100
100,127,-52
108,127,-24
114,102,53
65,17,84
79,-20,126
121,-26,127
127,-31,127
127,-5,68
127,21,38
127,125,-32
127,127,-91
127,127,-103
75,127,-123
41,127,-92
-54,115,-37
-120,93,-37
-128,63,21
-112,56,30
-101,51,12
-52,56,1
-26,63,14
30,85,46
41,127,23
45,127,-24
80,127,-21
87,127,-3
81,107,56
84,74,80
66,-28,90
106,-18,120
127,-49,110
127,-49,21
127,-24,-6
127,10,-84
127,53,-112
127,127,-128
127,127,-128
79,127,-105
28,127,-54
-12,127,-37
-80,127,-18
-108,116,-21
-89,79,2
-58,41,-2
-48,28,-6
-19,17,-6
-9,3,-15
75,16,0
102,56,11
127,87,25
90,93,38
78,82,37
43,38,41
38,3,51
68,-77,44
88,-75,34
127,-20,29
127,35,8
127,92,14
127,127,-22
127,127,-5
126,127,33
102,127,56
37,103,64
-13,66,17
-9,68,6
-5,72,-26
-6,69,-36
-3,54,-43
3,29,-55
-5,-40,-52
-29,-58,-19
-24,-58,7
-30,-14,85
-27,8,91
-60,12,90
-1,6,86
20,10,75
21,22,40
22,21,32
-12,-16,7
-51,-47,-27
-73,-53,-53
-76,-9,-67
-65,47,-62
-14,127,-50
6,127,-26
-6,127,-52
20,127,-45
70,127,-5
74,65,-25
83,76,0
120,127,8
127,127,-21
127,127,-24
127,127,-25
127,110,-2
96,47,-2
97,26,30
84,-26,33
73,-24,32
96,-31,75
90,-28,54
80,18,-8
127,76,-27
127,127,-44
127,127,-67
127,127,-74
28,111,-38
-6,86,-14
-109,71,-17
-128,42,-40
-113,48,-14
-44,42,11
-32,33,-5
-8,34,-5
102,120,18
127,127,6
127,127,20
127,119,35
120,68,51
68,33,47
40,-55,58
81,-92,73
110,-91,74
86,-69,25
80,-49,2
123,5,-21
127,111,-7
127,127,-58
73,127,-63
49,127,-22
-3,86,15
-66,71,1
-128,17,-21
-128,0,12
-52,35,51
-33,20,8
-24,30,7
38,77,17
119,127,19
127,127,32
127,127,35
122,75,21
52,11,44
43,-28,54
51,-117,51
84,-120,71
117,-73,72
114,-50,33
116,-2,-34
127,127,-26
127,127,-51
127,127,-50
86,127,-41
33,111,45
-2,95,83
-104,65,112
-34,69,127
15,63,111
46,45,48
42,43,10
59,50,-50
52,69,-85
33,69,-115
19,79,-101
18,78,-97
40,67,-85
46,57,-72
54,15,-112
90,-49,-95
115,-96,-94
113,-83,-85
94,-43,-86
72,63,-123
86,127,-128
95,127,-104
61,127,-62
44,127,-35
-8,87,43
-32,54,73
-83,27,96
-76,19,79
-24,36,68
-6,41,13
10,43,-5
50,68,-36
71,101,-58
127,106,-122
127,111,-124
114,73,-59
62,27,-41
56,-1,-44
87,-85,-24
92,-105,-24
105,-97,17
95,-84,12
102,-22,-51
127,127,-83
127,127,-93
100,127,-77
46,127,-50
-40,82,-10
-122,31,-19
-128,5,-30
-76,9,-5
-43,6,6
-16,5,0
-8,15,-3
13,67,-5
49,127,-26
127,127,2
127,127,12
127,110,6
64,22,45
61,-18,63
66,-80,75
74,-51,99
78,-45,81
76,-22,21
95,7,12
127,127,-27
127,127,-113
106,127,-128
6,106,-28
-68,67,-6
-128,28,0
-123,19,16
-48,35,37
-15,22,38
-20,24,8
8,44,6
24,83,-2
127,127,-38
127,127,-28
127,127,-5
100,109,-4
61,31,23
63,-46,59
84,-60,70
106,-75,80
112,-65,76
100,-16,7
90,11,-17
127,127,-39
118,127,-128
71,127,-123
11,127,-32
-47,79,-26
-128,38,7
-128,-14,10
-80,22,36
-10,19,29
-19,22,7
18,55,8
52,95,0
127,127,-24
127,127,7
127,127,10
100,89,22
61,52,25
59,-16,69
68,-41,77
82,-57,75
89,-64,35
102,-52,11
125,-7,-53
127,35,-94
127,127,-128
127,127,-128
78,127,-76
34,94,-44
20,77,-32
10,61,-4
10,57,0
8,53,-5
7,55,-3
25,42,1
91,65,10
89,58,15
116,56,40
84,48,43
34,21,25
9,6,21
9,-1,25
11,-18,19
14,-21,15
41,-27,14
64,-29,14
127,-19,36
127,-5,52
127,-3,55
127,-17,48
127,-13,43
103,-6,22
71,-10,13
26,-13,-7
1,-11,-29
-6,-11,-37
-12,-5,-46
-10,-3,-48
-10,15,-41
-16,21,-39
-17,31,-46
-15,53,-38
-14,73,-33
-2,127,-31
-5,127,-22
-27,127,-47
-60,127,-68
-33,127,-80
59,127,-92
121,127,-49
127,127,-81
127,127,-67
127,95,-62
127,80,-95
104,102,-115
63,127,-109
47,127,-97
45,127,-74
43,127,-66
29,127,-67
24,127,-54
-8,122,-46
-7,122,-48
-2,127,-20
-21,127,-5
-37,127,-21
-37,127,-7
-29,127,32
-10,127,1
127,127,-11
127,127,-38
127,127,-87
127,127,-38
127,127,-128
106,112,-128
94,115,-124
56,127,-115
45,127,-102
47,127,-81
42,127,-86
24,127,-80
5,127,-57
-24,127,-59
-26,127,-23
-49,127,-8
-44,127,-5
-56,127,-20
-44,127,-31
-29,127,-48
0,127,-42
67,127,26
85,127,2
127,127,-54
127,127,-77
127,127,-55
127,110,-121
109,104,-128
61,118,-128
52,118,-115
54,127,-65
52,127,-57
34,127,-50
6,127,-33
-27,124,-43
-40,127,12
-67,116,-11
-65,127,-38
-53,127,-11
-33,127,-11
-12,127,-13
7,127,5
127,127,6
127,127,33
127,127,-47
127,127,-54
127,110,-128
119,127,-128
88,127,-128
56,127,-106
55,127,-86
45,127,-81
21,127,-63
15,127,-51
-33,127,-38
-60,127,-38
-63,127,-13
-73,127,-17
-54,127,-20
-54,127,-41
-45,127,-59
-5,127,-73
68,127,-47
127,127,-4
127,127,-38
127,127,-58
127,110,-90
127,113,-121
91,118,-128
71,117,-128
51,127,-97
50,127,-85
37,127,-76
25,127,-60
12,127,-52
-26,127,-28
-79,106,-17
-70,96,-42
-54,127,-27
-28,127,-19
-17,127,-43
2,127,-46
54,127,-19
115,127,0
127,127,55
127,127,18
127,127,-34
127,111,-99
127,121,-120
80,127,-119
64,127,-105
53,127,-74
44,127,-75
36,127,-83
-2,127,-68
-26,127,-60
-47,66,-54
-67,72,-33
-58,117,-34
-27,127,-12
-25,127,-12
-27,127,-27
-38,127,-48
-4,127,-73
76,127,-41
127,127,12
127,127,30
127,127,-14
127,127,-51
127,123,-67
111,127,-103
60,127,-105
51,127,-86
37,127,-65
35,127,-62
24,127,-61
13,127,-66
4,109,-55
0,97,-52
-3,102,-27
-23,127,-15
-35,123,-26
12,127,0
9,127,12
-34,127,44
-57,127,10
16,127,45
127,127,1
127,127,-41
127,127,-23
127,127,-64
113,117,-98
111,105,-103
81,127,-93
49,127,-82
44,127,-73
35,127,-61
27,127,-68
11,127,-63
-2,102,-49
-32,89,-63
-62,70,-79
-61,106,-59
-10,127,-5
-12,127,-16
-22,127,-42
-62,127,-60
-73,127,-72
23,127,-37
67,127,4
127,127,-50
127,127,-38
127,127,-78
127,97,-82
122,80,-104
91,119,-125
72,127,-104
45,127,-72
39,127,-67
32,127,-59
20,127,-42
-1,127,-33
-50,127,-31
-77,110,-37
-62,127,-23
-48,127,-21
-36,127,-19
-50,127,-47
-30,127,-39
113,127,-41
127,127,40
127,127,39
127,127,35
127,127,-53
127,127,-103
127,127,-120
72,127,-104
62,127,-92
57,127,-78
41,127,-80
30,127,-68
9,127,-40
-34,127,-34
-75,127,-6
-104,124,-19
-86,127,-15
-54,127,-23
-48,127,-29
-37,127,-56
-29,127,-75
53,127,-29
98,127,9
96,127,1
127,127,-75
127,127,-61
127,99,-89
121,109,-117
81,127,-104
64,127,-86
47,127,-59
30,127,-60
17,127,-59
-22,127,-59
-42,99,-54
-90,81,-41
-125,89,-61
-70,127,-25
-62,127,-35
-46,127,-47
-29,127,-56
-19,127,-58
60,127,-16
127,127,-8
127,127,-39
127,127,-75
127,101,-91
127,121,-106
97,127,-121
50,127,-107
46,127,-92
51,127,-65
40,127,-70
31,127,-60
-28,127,-52
-46,127,-43
-128,102,-54
-128,127,-53
-128,127,-47
-83,127,-22
-65,127,-29
-27,127,-50
-14,127,-61
43,127,-115
127,127,-27
123,127,-42
94,127,-59
100,127,-64
68,64,-54
67,44,-51
58,6,-56
39,-7,-46
20,-4,-57
0,-6,-60
3,-8,-52
-11,7,-60
-14,24,-55
-14,67,-39
-10,114,-27
-8,127,-29
0,127,-10
3,127,35
-36,127,88
-93,127,94
-66,127,55
30,127,-21
65,127,-24
85,117,-5
81,101,-19
67,70,-42
63,30,-42
67,16,-39
81,-2,-39
87,-4,-37
91,11,-36
96,27,-29
105,84,-19
121,127,-4
116,127,-1
106,127,0
91,127,9
79,127,52
59,127,98
40,127,97
24,127,65
18,127,33
-9,127,-10
-48,127,-29
-81,127,-67
-66,127,-57
-29,127,-79
21,127,-100
49,127,-92
45,106,-116
31,100,-128
51,117,-82
67,127,-78
127,127,-73
127,127,-92
127,127,-58
127,127,17
127,127,9
84,127,29
74,127,39
82,127,67
55,127,45
38,127,27
-15,127,1
-45,127,-4
-64,108,-37
-11,88,-32
-1,87,-28
12,110,-49
9,117,-64
33,127,-66
53,116,-58
37,84,-114
46,111,-91
42,91,-72
114,122,-50
127,127,-72
127,127,-59
127,127,-37
127,127,-6
127,127,-13
93,127,19
93,127,49
86,127,63
61,127,56
51,127,41
5,127,24
-56,127,-4
-76,126,-30
-26,107,-26
-13,118,-40
5,127,-65
21,127,-64
47,120,-50
37,84,-78
31,92,-105
35,127,-82
51,127,-87
127,127,-63
127,127,-94
127,127,-28
127,127,16
127,127,24
60,127,48
71,127,55
48,127,47
38,127,30
20,127,-12
-25,127,-34
-52,127,-45
-42,104,-47
-24,112,-41
5,127,-54
51,127,-59
78,127,-52
50,102,-128
31,105,-128
68,92,-61
85,85,-65
125,72,-51
127,127,-92
127,127,-35
127,127,-35
127,127,-36
127,127,-15
125,127,28
112,127,85
80,127,100
58,127,93
5,127,69
-23,127,52
-74,127,-24
-57,127,-29
-2,127,-35
-14,127,-90
-8,127,-98
39,127,-80
48,126,-97
49,127,-94
38,122,-59
87,127,-83
127,127,-115
127,127,-55
127,127,6
127,127,1
104,127,31
112,127,60
103,127,80
34,127,46
3,127,41
-63,127,2
-87,127,-51
-16,127,-33
-7,127,-59
-3,127,-73
14,127,-72
49,127,-66
54,127,-111
34,127,-128
70,127,-76
127,115,-49
127,121,-35
127,127,-44
127,127,-11
127,127,-23
127,127,-37
114,127,14
123,127,75
113,127,90
60,127,64
27,127,60
-42,127,26
-84,127,-16
-80,127,-34
-41,127,-52
-50,127,-82
-14,127,-84
16,127,-79
79,127,-82
60,127,-126
55,127,-76
57,127,-52
118,127,-43
127,127,-83
127,127,-56
127,127,3
127,127,-3
93,127,24
97,127,53
88,127,63
57,127,40
8,127,13
-78,127,9
-108,127,-35
-28,127,-25
5,127,-63
3,127,-83
13,127,-76
44,127,-66
44,127,-85
86,127,-128
83,127,-74
77,89,-75
103,87,-41
127,127,-103
127,127,-72
127,127,-1
127,127,-34
126,127,-20
107,127,17
91,127,38
55,127,46
40,127,26
-19,127,38
-87,127,-30
-75,127,-36
-7,127,-15
3,127,-34
-34,127,-97
-22,127,-103
40,127,-89
46,118,-128
26,119,-124
47,88,-85
37,102,-87
121,127,-62
127,127,-128
127,127,-62
127,127,4
127,127,-2
79,127,7
101,127,28
72,127,16
62,127,40
-12,127,18
-128,127,-25
-128,94,-51
-38,90,-12
-16,85,-26
-52,92,-105
-27,100,-92
-11,105,-76
25,84,-80
35,71,-100
15,67,-128
13,70,-117
45,94,-102
111,127,-111
117,127,-96
127,127,-128
127,127,-128
81,127,-128
-9,127,-79
-22,127,-95
8,127,-74
15,127,-59
-12,69,-128
-2,52,-128
10,41,-128
20,32,-128
28,43,-128
56,68,-78
68,76,-58
105,98,-55
123,110,-39
115,126,5
110,127,61
43,127,75
-128,127,119
-128,122,106
-128,111,102
-128,112,87
-88,127,47
-60,127,24
-8,127,-22
39,127,-69
59,127,-87
75,127,-87
93,127,-72
71,127,-81
65,127,-90
76,127,-80
96,127,-47
107,127,-41
127,106,-29
127,47,-14
127,-28,5
127,-21,-11
127,-7,-16
127,20,-27
112,37,-26
81,100,-47
73,127,-56
65,127,-60
79,127,-49
78,127,-48
68,127,-53
65,127,-55
58,127,-99
60,127,-99
54,127,-128
49,127,-128
53,127,-128
28,127,-128
30,127,-128
47,127,-88
45,127,-69
37,127,-38
9,127,-15
-50,127,-6
-128,107,1
-128,101,35
-128,75,61
-127,69,50
-76,120,28
-51,127,15
-36,127,17
5,127,2
22,127,-20
46,127,-87
47,127,-109
43,127,-117
30,127,-109
20,127,-101
-2,127,-121
5,127,-117
43,127,-101
110,127,-88
91,127,-96
106,89,-20
125,67,-29
127,-11,-12
127,-17,-1
127,-11,-26
127,-2,-28
126,15,-34
86,64,-45
87,104,-57
90,127,-68
81,127,-58
75,127,-41
63,127,-44
59,127,-56
46,127,-91
35,127,-105
12,127,-128
1,127,-128
11,127,-128
9,127,-124
7,121,-102
14,115,-51
16,113,-34
16,115,-9
9,119,9
-70,103,26
-128,87,25
-128,79,52
-73,90,83
-61,115,66
-70,127,17
-40,127,26
11,127,6
29,127,-85
52,127,-106
42,127,-72
14,127,-85
-1,127,-64
1,127,-64
-4,127,-124
15,127,-100
35,127,-83
81,127,-86
82,127,-84
88,102,-38
127,67,-8
127,34,11
127,-8,6
127,2,11
127,18,9
127,22,5
105,32,-11
89,97,-31
97,127,-57
71,127,-58
66,127,-37
77,127,-44
75,127,-57
52,127,-63
47,127,-128
35,127,-128
8,127,-128
-11,127,-128
0,127,-128
0,127,-128
4,127,-92
8,127,-56
12,127,-36
22,127,-4
9,127,1
-128,127,-17
-128,110,7
-128,73,97
-90,87,71
-82,122,43
-60,127,24
-12,127,45
28,127,-12
41,127,-84
80,127,-122
53,127,-128
49,127,-95
38,127,-83
29,127,-108
38,127,-128
53,127,-128
82,127,-121
86,127,-83
101,111,-65
127,37,-54
127,-9,-25
127,-9,-44
127,14,-37
127,18,-32
120,22,-26
106,24,-16
70,45,-30
59,66,-36
71,127,-59
47,127,-78
46,127,-61
58,127,-58
53,127,-76
35,127,-128
17,127,-128
-24,127,-128
-50,127,-128
-41,127,-128
-18,127,-125
-11,127,-116
-6,127,-87
-19,127,-37
-52,127,30
-121,127,68
-128,127,80
-44,84,51
-11,83,34
10,76,36
-3,106,29
10,127,-2
35,127,-6
51,127,-27
49,127,-128
54,127,-128
49,127,-100
11,127,-99
20,127,-103
12,127,-116
8,127,-118
21,127,-117
54,127,-105
85,127,-104
73,89,-66
91,62,-57
127,-14,-42
127,-12,-38
127,4,-51
127,10,-34
127,11,-12
126,38,-20
108,68,-30
71,127,-61
60,127,-72
52,127,-61
46,127,-61
43,127,-67
45,127,-88
43,127,-115
-5,127,-128
-26,127,-128
-39,127,-128
-49,127,-128
-26,127,-128
1,127,-84
2,127,-76
17,127,-49
23,127,-35
-43,127,0
-128,127,5
-128,82,51
-62,83,95
-26,70,66
-30,84,6
-32,109,-13
28,127,-36
48,127,-38
57,127,-45
38,127,-127
74,127,-128
127,127,-94
95,127,-86
40,127,-59
47,127,-72
62,83,-95
62,39,-26
85,18,-35
127,-42,-19
127,-39,7
127,-6,31
119,64,3
103,124,-14
69,127,-31
60,127,-43
38,127,-79
33,127,-75
47,127,-66
59,127,-73
67,127,-69
59,122,-91
44,111,-99
34,91,-83
14,88,-88
-22,93,-81
-96,87,-68
-128,93,-71
-74,127,-3
-80,127,-5
-128,127,0
-128,127,27
-128,127,40
-50,127,-40
60,127,-74
127,103,-128
127,52,-128
127,127,-9
18,117,-43
-2,82,-54
-12,69,-41
-30,58,-31
-98,41,-39
-128,51,-56
-32,127,46
-100,127,21
-128,127,10
-54,127,117
-102,127,90
-99,127,39
-49,127,43
74,127,-20
127,107,-82
127,84,-55
123,106,-24
50,89,-31
7,46,-29
2,41,-32
-21,19,-32
-42,19,-30
-49,56,0
-26,105,44
-68,113,7
-77,127,7
-75,127,30
-109,127,68
-128,127,75
-117,127,51
-11,127,-20
59,127,-48
127,127,-98
127,114,-64
104,121,-16
0,56,-39
6,48,-41
-19,33,-39
-32,26,-34
-87,25,-40
-92,72,-39
-52,127,59
-90,127,14
-117,127,-16
-104,127,51
-95,127,77
-99,127,30
-71,127,15
66,127,-26
127,81,-82
127,73,-42
117,113,-37
26,82,-46
14,67,-32
4,66,-39
-30,42,-36
-105,-8,-38
-128,2,-67
-34,127,59
-8,127,114
-92,127,-30
-103,127,29
-48,127,91
-71,127,31
-56,127,12
82,127,-28
125,113,-20
127,116,-13
106,127,-45
57,99,-36
10,91,-80
1,89,-78
-15,62,-56
-41,43,-37
-128,49,-53
-63,127,33
-68,127,56
-128,127,0
-128,127,8
-80,127,54
-51,127,-23
20,127,-37
127,127,-62
127,77,-50
127,111,-24
105,121,-59
27,67,-59
13,64,-80
-5,64,-77
-66,30,-69
-128,-9,-90
-51,127,49
-36,127,105
-128,127,-34
-128,127,20
-128,127,62
-83,127,8
12,127,-9
127,107,-89
127,79,-66
127,127,-36
32,127,-53
44,111,-46
13,98,-58
5,98,-50
-26,72,-42
-60,55,-41
-128,65,-51
-38,127,63
-88,127,35
-128,127,4
-117,127,31
-118,127,45
-109,127,25
-9,127,-25
127,121,-97
127,69,-62
127,127,-10
80,127,-35
1,73,-50
0,54,-57
2,46,-34
-28,31,-24
-51,24,-26
-109,55,12
-85,81,62
-119,109,32
-101,127,39
-102,127,56
-110,127,46
-93,127,40
-40,127,33
27,127,8
127,126,-58
127,81,-28
127,86,-2
52,71,-47
59,60,-36
13,43,-40
4,41,-35
-11,38,-28
-11,38,-27
-44,62,-1
-35,85,28
-89,96,4
-78,127,33
-82,127,51
-120,127,49
-100,127,37
-83,127,43
-32,127,22
32,127,-8
127,108,-67
127,78,-34
111,94,-7
16,64,-41
10,53,-51
6,35,-45
-7,31,-33
-43,29,-30
-61,35,-28
-73,81,0
-66,122,30
-81,127,28
-122,127,40
-128,127,56
-119,127,56
-95,127,41
5,127,14
110,127,-61
127,101,-65
127,96,-3
80,84,-29
16,40,-35
13,30,-30
0,16,-25
-24,-3,-28
-29,-6,-29
-20,32,-13
-11,63,35
-33,85,29
-34,112,-11
-38,127,61
-21,127,59
-31,127,55
-46,127,84
-47,127,79
-48,127,51
-6,127,22
26,127,14
71,112,-14
96,91,-16
94,73,-3
75,61,-7
31,36,-24
15,19,-20
10,17,-17
-3,20,-17
-5,26,-14
-6,45,-10
-4,58,-3
-21,83,2
-17,111,25
-51,120,27
-80,127,36
-73,127,42
-59,127,48
-54,127,54
-58,127,62
-64,127,59
-49,127,44
43,127,13
67,127,-13
123,85,-13
127,97,-15
74,81,-34
34,37,-29
28,29,-20
1,28,-25
-11,25,-30
-22,22,-37
-22,32,-37
-15,75,-22
1,121,29
-17,127,15
-65,127,-16
-94,127,3
-102,127,56
-113,127,56
-101,127,31
-37,127,-2
24,127,-11
103,122,-52
127,80,-45
127,81,-8
47,74,-26
27,56,-21
11,39,-25
4,34,-27
-16,18,-26
-32,2,-27
-31,11,-18
-33,64,22
-28,86,36
-66,121,14
-86,127,7
-87,127,39
-83,127,56
-78,127,38
-36,127,9
5,127,-4
91,127,-42
116,81,-29
127,55,-8
127,58,-9
78,51,-27
34,31,-24
12,26,-36
-9,15,-44
-15,7,-41
-22,-3,-29
-23,4,-20
-15,35,32
-33,56,5
-48,93,-15
-34,127,78
-4,127,97
-6,127,93
40,121,73
51,97,31
58,70,19
52,62,0
35,54,-19
36,52,-24
31,49,-12
47,44,-13
34,45,-19
-29,64,10
3,78,17
12,84,26
0,58,3
11,57,5
26,71,24
25,68,22
24,67,11
19,65,8
8,63,9
3,68,5
8,71,3
15,60,4
7,62,4
4,67,-9
3,68,-12
28,64,12
24,56,16
23,42,1
47,46,19
51,54,26
26,63,2
26,70,7
11,64,7
6,65,8
22,63,16
41,64,7
54,67,11
25,47,22
6,25,25
20,6,27
25,4,25
25,31,20
33,73,26
74,104,12
44,81,30
31,71,39
10,66,43
24,67,46
29,70,66
91,96,38
112,92,16
118,72,-10
84,66,-61
26,44,-95
13,38,-71
-5,35,-62
-38,45,-44
-41,69,-19
-61,125,-1
-89,127,7
-128,127,56
-128,127,77
-117,127,48
-52,127,-1
-13,127,-18
98,127,-15
99,127,-46
127,80,-29
89,80,-9
46,69,-21
10,45,-23
4,42,-22
-16,30,-21
-33,20,-21
-87,38,-18
-73,81,5
-50,103,34
-77,111,23
-91,126,13
-81,127,37
-75,127,51
-81,127,65
-37,127,20
17,127,-32
109,65,-76
127,37,-67
116,34,-17
68,49,-31
37,55,-38
52,65,-41
59,64,-24
30,68,-22
27,80,-11
3,109,-14
-72,127,-58
-128,127,-60
-128,127,4
-128,127,24
-128,127,40
-128,127,30
-57,127,20
-35,127,8
42,127,-13
108,108,-54
127,67,-56
127,57,-19
96,59,-18
45,47,-33
22,31,-24
8,24,-21
-10,12,-20
-16,10,-17
-24,14,-15
-24,21,-9
-9,39,10
15,69,45
7,83,40
-27,127,22
-33,127,41
-15,127,72
-19,127,64
-25,127,36
-4,114,30
8,104,26
24,86,9
34,76,-2
45,62,-6
47,62,-8
47,59,-5
47,59,-7
52,60,-5
46,59,-1
40,55,2
37,50,14
32,49,9
22,49,6
9,53,20
13,58,23
-5,71,17
-20,74,14
-53,81,10
-51,88,25
-65,86,32
-79,88,34
-91,87,29
-90,102,22
-90,109,14
-56,127,-10
39,127,-44
64,114,-77
81,34,-105
81,23,-87
37,19,-24
-3,21,-39
30,43,-46
50,62,-40
56,88,-33
85,127,-18
80,127,-23
90,127,-2
112,127,37
121,127,115
76,107,114
47,104,90
-15,97,51
-36,81,16
-40,53,-20
-43,51,-32
-32,51,-53
-11,62,-113
1,68,-128
27,96,-78
90,127,-114
127,127,-112
121,127,-95
87,127,-86
104,127,-1
116,127,30
113,107,83
88,101,95
40,109,77
-38,100,29
-51,86,4
-47,64,-19
-45,62,-32
-42,66,-73
-26,68,-103
1,76,-117
16,92,-86
127,127,-128
115,127,-111
121,127,-88
93,127,-62
110,127,-17
127,127,58
105,106,95
77,99,91
11,115,76
-23,118,64
-65,92,-11
-60,77,-19
-51,79,-42
-57,68,-121
-42,77,-128
64,127,-115
127,127,-128
119,127,-128
122,127,-112
105,127,-64
127,127,51
127,127,93
103,121,127
70,127,127
-42,127,-4
-79,126,-28
-48,91,-26
-67,86,-69
-70,75,-106
-32,78,-110
2,109,-85
127,127,-128
127,127,-128
127,127,-91
116,127,-47
117,127,3
127,127,73
127,127,92
84,127,108
34,127,47
-25,127,-27
-69,96,-30
-65,80,-33
-58,67,-65
-68,62,-90
-34,89,-98
60,127,-63
127,127,-67
127,127,-127
107,97,-87
71,127,-58
93,127,-44
72,127,-20
47,127,-28
49,127,-11
32,127,21
45,122,67
46,127,111
-34,127,16
-65,59,-86
-54,14,-123
30,13,-89
127,32,-34
127,50,-26
100,87,15
62,92,27
-4,104,10
-42,104,-6
-70,95,-11
-52,93,-12
-27,91,-27
-23,78,-6
-24,78,3
-41,62,8
-31,55,2
-29,53,4
-18,51,-4
-12,56,-3
8,78,-14
-31,90,-23
-32,96,-12
-11,109,11
-39,103,-7
-46,96,-28
-47,92,-39
-8,99,-69
2,93,-52
3,77,-40
42,54,-5
41,47,17
104,34,53
113,15,46
109,-11,52
108,1,62
110,18,60
-10,38,1
79,1,25
40,47,43
53,47,40
51,48,36
38,37,3
46,42,15
33,24,-3
40,19,-5
54,13,9
67,7,9
76,-10,9
73,-21,1
71,-23,-12
61,-27,-37
62,-23,-52
48,-1,-52
30,7,-45
10,15,-17
29,11,12
35,7,19
59,-24,16
72,-29,21
72,-19,24
101,-12,40
35,1,55
7,-5,48
-28,-4,21
-128,17,-7
-128,28,-1
-44,40,26
40,44,54
68,31,58
81,-3,33
84,-14,23
99,-25,-5
117,-23,-22
120,-5,-17
92,0,-11
28,9,-8
2,9,-28
9,3,-23
42,-13,-13
58,-21,-7
72,-27,12
88,-25,31
92,-14,35
74,0,37
46,3,43
27,-5,43
7,-5,23
-92,15,-3
-83,40,40
-35,46,54
16,41,69
28,27,71
37,8,66
38,1,62
45,-7,57
60,-8,37
72,-7,19
79,-8,-9
66,-5,-14
44,4,-14
31,12,-15
12,14,-21
23,6,-18
36,-1,-14
63,-13,6
65,-16,17
81,-4,37
84,4,42
72,25,57
75,29,88
61,13,62
-43,16,17
-71,24,19
-45,36,32
-16,38,43
34,39,64
57,30,60
56,24,52
52,20,42
42,18,35
49,26,23
61,31,20
55,35,17
46,31,13
52,34,11
38,38,11
37,39,13
39,41,11
40,46,12
37,51,12
35,64,10
40,67,5
37,65,10
46,65,12
35,60,7
26,55,8
26,54,12
21,54,13
17,55,17
22,56,15
25,56,18
26,56,20
31,60,22
31,60,24
34,63,29
30,64,29
32,61,29
31,60,31
30,65,28
28,60,26
27,55,25
24,50,22
24,48,19
26,52,13
25,59,6
22,67,2
18,81,-1
13,84,-2
9,77,-7
5,68,-6
-1,52,-1
2,52,1
5,55,-1
12,57,-5
15,58,-7
18,59,-8
18,60,-8
18,64,-4
17,68,2
13,68,3
11,69,6
9,70,6
8,75,7
5,74,7
2,72,10
1,68,12
2,67,11
4,68,9
6,71,8
8,68,8
7,66,9
3,62,14
-9,62,13
-14,60,12
-16,56,12
-17,57,12
-16,57,10
-15,56,9
-12,56,9
-13,58,8
-14,59,7
-15,60,5
-16,59,5
-17,59,5
-17,58,6
-17,60,7
-17,60,8
-17,58,9
-15,55,11
-13,55,12
-9,56,13
-7,55,14
-3,54,16
-1,57,16
1,59,21
2,57,14
7,57,11
5,70,11
-2,97,1
-1,96,-3
-15,92,-10
-20,86,-11
-23,82,-12
-19,75,-12
-14,58,-9
-10,57,-9
-6,58,-7
-2,55,-7
-2,53,-5
0,56,-2
-1,57,-1
2,58,0
3,60,6
1,60,8
3,60,14
4,62,15
4,64,16
5,63,16
5,65,15
8,71,15
8,70,16
6,64,22
4,65,22
-5,73,16
-7,72,12
-17,62,4
-21,54,1
-16,53,4
-12,57,11
-8,59,12
-5,58,12
-8,63,11
-9,64,11
-12,57,12
-12,57,13
-11,53,12
-10,52,10
-4,53,8
-2,52,7
0,54,9
3,63,9
5,63,7
9,64,7
11,69,9
13,82,11
17,76,9
16,73,7
13,65,6
13,62,6
11,67,1
9,74,-4
7,76,-8
3,67,-8
0,64,-4
-9,60,-1
0,56,-5
34,49,-8
30,52,-14
23,48,-9
20,46,-13
15,56,-9
15,74,8
40,79,14
33,70,-2
33,73,3
32,72,17
32,64,19
28,61,19
26,65,29
10,63,26
10,51,3
19,43,3
14,39,3
32,40,11
35,42,18
32,48,28
40,55,32
53,58,33
22,52,29
15,39,31
50,27,23
40,21,26
63,16,21
26,7,0
51,-11,21
11,-15,27
-2,-12,23
-17,8,-18
-11,32,-30
23,106,5
6,127,18
59,127,21
-56,127,-73
-73,124,-74
8,119,-26
15,108,-7
14,89,14
13,77,14
17,59,15
22,50,11
25,46,8
24,42,6
26,43,4
23,41,1
22,44,-1
19,47,-4
17,48,-3
17,51,-2
15,50,4
15,46,7
17,49,12
17,52,14
21,59,17
18,65,16
18,70,14
9,78,11
5,80,7
-1,86,3
0,79,1
5,58,3
6,54,10
6,52,7
26,56,11
26,56,10
25,55,6
17,54,6
-3,43,-1
30,61,20
32,60,24
25,70,45
-9,61,38
15,51,31
12,52,33
15,54,37
18,55,42
22,62,48
11,68,45
20,73,39
39,65,20
48,53,11
43,46,2
32,37,-1
31,33,-5
32,37,5
33,42,8
28,47,15
23,50,23
16,50,23
41,57,30
51,54,21
50,44,20
46,40,19
56,39,11
55,40,12
49,43,11
33,57,18
55,58,15
67,65,11
63,61,10
42,53,13
44,52,5
39,50,3
40,35,2
28,30,4
27,11,6
18,-4,17
21,-11,13
33,-2,14
47,17,19
60,54,26
57,62,23
47,53,15
44,53,14
50,59,34
53,79,59
87,73,39
80,62,14
52,55,11
44,43,2
44,38,1
54,36,8
47,28,23
35,20,32
28,7,14
21,1,12
23,-20,20
72,10,25
69,23,29
61,37,28
52,46,39
34,60,43
31,76,39
68,67,61
67,54,29
43,42,15
34,38,6
36,36,3
38,37,6
45,28,9
36,12,14
52,6,17
57,9,23
50,11,28
43,18,31
38,36,38
25,49,54
27,53,37
70,45,6
69,52,14
69,43,19
79,46,29
80,33,30
66,22,21
59,12,4
69,18,-10
70,27,-11
60,33,-1
52,33,11
50,36,12
30,28,0
49,27,3
49,14,7
50,18,24
53,2,16
47,3,17
36,17,18
52,25,55
59,25,68
69,4,50
72,16,32
60,27,-2
58,26,-10
40,16,8
51,23,32
51,35,49
51,35,38
42,31,16
15,21,2
25,23,8
48,20,24
69,20,42
66,21,44
54,25,35
46,29,33
59,34,44
69,32,45
77,30,26
47,18,6
44,15,3
56,16,14
64,19,27
56,30,36
41,26,27
39,24,23
29,20,23
31,20,24
31,19,19
27,22,15
42,31,21
57,39,26
67,41,33
80,41,55
79,42,48
61,39,22
54,42,17
37,51,9
31,59,8
23,56,1
21,49,-4
19,46,-6
16,45,-8
19,41,-8
22,39,-6
18,41,3
24,48,6
38,61,19
35,63,22
35,73,18
31,79,19
21,85,11
29,87,7
33,87,8
34,79,11
30,71,14
29,66,23
27,69,24
15,62,19
14,56,17
13,55,19
10,55,19
11,56,20
13,56,16
13,59,14
3,61,6
-10,71,-8
-14,75,-17
-29,73,-19
-35,74,-22
-29,64,-24
-26,58,-22
-20,64,-13
5,75,-19
16,73,-11
-3,56,-21
9,57,-11
31,48,-8
44,56,9
21,62,14
25,61,34
4,52,14
1,63,38
4,66,41
11,75,40
15,89,31
17,93,24
23,90,16
25,85,13
7,73,5
3,75,3
-2,84,0
2,82,-4
1,76,-3
1,66,-3
3,58,-3
1,51,-1
-2,51,-2
2,47,-5
11,50,3
24,55,8
-7,53,23
3,58,15
11,66,19
25,81,11
65,84,9
60,59,28
58,47,32
24,56,12
-13,53,5
29,51,12
31,39,14
25,28,17
25,20,13
28,20,13
34,22,27
32,25,27
15,33,11
29,62,47
28,72,56
16,75,60
22,81,64
36,85,87
13,77,61
21,74,18
13,80,10
-25,66,-20
-36,53,-6
-39,56,8
-45,43,-8
-27,39,-11
8,42,-18
7,52,2
-14,50,-1
3,40,-7
39,47,-5
38,71,12
48,82,20
17,67,55
-8,57,104
-8,70,114
3,79,103
4,80,87
24,55,38
21,39,12
59,29,-8
20,32,-15
-16,22,-30
-92,38,-37
-92,49,-25
-85,56,-20
-62,61,-28
32,53,-26
83,60,16
95,62,31
97,59,60
100,51,69
80,54,59
79,54,52
60,51,21
63,49,2
53,45,8
20,38,19
11,38,22
27,34,30
47,30,25
101,13,17
83,38,25
77,60,38
52,72,55
53,68,72
41,54,50
-26,22,-9
-57,32,-34
-94,51,-66
-85,52,-67
-50,49,-29
-29,49,-8
16,48,29
40,32,45
45,25,41
68,12,31
73,13,21
86,17,2
77,25,1
68,44,5
59,45,3
50,41,3
46,41,-9
46,44,-16
52,39,-25
65,37,-27
76,40,-26
69,40,-8
60,40,11
43,38,35
40,38,44
30,43,44
26,50,42
20,53,32
-11,50,16
-18,56,15
-29,56,5
-39,45,-10
-65,29,-18
-62,40,-11
-33,57,7
-16,67,21
-12,72,28
-7,77,32
0,75,27
16,61,21
27,45,20
27,42,19
31,40,10
38,41,5
53,49,-1
57,54,-1
50,64,-14
50,67,-21
46,69,-26
45,69,-19
54,72,-19
70,65,-24
70,61,-21
65,62,-7
56,69,3
51,73,4
34,75,1
27,74,-2
19,74,-8
17,74,-9
8,69,-13
3,64,-11
11,66,-8
10,69,-2
4,70,-6
-8,57,-6
-14,48,-6
-19,50,2
-21,54,21
-21,58,25
-17,76,23
-20,77,21
-17,66,24
-8,62,26
-7,51,24
-2,53,23
3,61,26
21,72,28
23,72,29
22,67,30
18,62,32
15,59,32
16,74,23
13,81,20
8,84,20
8,78,18
11,69,17
13,76,15
13,80,13
13,80,9
12,77,7
8,65,7
5,61,8
1,55,7
3,55,5
5,58,5
3,63,4
5,71,5
-9,72,4
-14,67,5
-22,59,4
-17,59,5
-12,67,10
2,71,15
5,65,16
8,65,15
4,71,8
6,68,6
5,56,-1
4,51,-3
6,52,-3
10,59,0
19,72,8
25,77,13
34,78,19
34,78,21
33,74,21
30,75,18
29,80,17
31,82,18
32,76,20
33,67,22
24,72,18
19,75,16
11,85,12
8,86,8
2,73,2
2,68,0
4,59,-1
5,55,-1
7,56,0
8,59,-2
8,62,0
-5,64,-1
-10,61,-5
-12,57,-10
-8,77,-8
-7,80,-3
-5,80,16
-8,85,16
-13,83,10
-5,67,6
0,60,7
4,47,4
6,46,3
6,48,4
7,52,6
16,65,12
31,82,15
40,88,15
41,94,15
36,90,17
17,80,18
17,85,17
16,76,13
17,70,9
19,72,9
21,76,8
20,76,7
13,63,8
11,59,7
8,52,5
7,52,1
9,55,0
7,66,-6
4,75,-9
4,87,-11
-11,79,-13
-34,65,-8
-9,73,-20
6,77,-28
43,60,0
37,50,-3
15,78,13
-12,89,4
15,62,17
12,45,12
9,39,12
13,38,19
18,40,25
28,55,26
39,63,23
43,67,22
47,69,17
49,70,14
51,75,7
55,82,5
49,76,-4
35,73,-6
31,71,-2
18,70,-10
24,68,-9
14,57,-8
9,54,-9
6,46,-4
11,44,-4
16,46,-4
25,54,-2
27,58,-2
23,74,5
21,85,12
31,65,14
20,58,-2
24,57,-8
22,47,-3
25,44,3
24,52,10
25,59,13
17,70,15
15,54,12
9,46,8
5,43,9
11,47,10
22,59,16
29,65,18
46,71,22
37,66,22
29,64,23
21,68,16
22,73,11
20,77,7
23,77,7
26,74,6
22,79,3
18,78,3
15,74,5
11,70,5
7,61,3
7,58,2
7,58,1
4,60,-1
4,60,-2
6,63,-7
7,63,-7
-5,63,-6
-16,59,-9
-14,56,-9
-9,67,-6
-4,75,-3
17,78,3
14,73,6
16,75,12
11,70,13
15,67,16
13,51,10
8,46,9
4,46,15
7,51,14
22,64,15
29,66,15
24,64,17
14,59,20
15,63,18
16,72,12
16,73,8
16,79,3
19,80,4
21,78,6
24,86,7
19,85,6
7,77,6
3,74,6
-5,64,4
-4,54,3
-2,51,2
2,50,1
5,51,1
6,53,-2
8,53,-1
9,57,-2
10,66,-6
9,66,-6
7,71,2
9,75,5
9,68,10
7,63,13
-8,65,15
-15,61,7
-6,59,5
4,75,3
11,69,2
17,65,1
18,67,3
16,66,6
16,60,8
17,56,11
18,61,17
19,71,19
19,83,17
7,80,12
10,83,9
11,76,3
12,73,1
9,73,2
8,73,2
7,77,3
5,74,2
6,71,1
4,68,-1
3,67,-3
2,63,-6
0,58,-7
-5,54,-15
-6,55,-19
-6,54,-19
-3,60,-15
-1,64,-11
6,74,2
8,77,7
11,74,11
23,72,22
16,73,21
13,71,17
12,68,12
8,55,5
5,54,4
5,60,16
16,64,-7
27,66,-2
20,65,6
17,64,7
15,62,14
14,70,17
18,74,16
21,78,11
24,78,11
28,80,14
23,76,12
9,70,10
0,75,8
-3,80,6
-3,79,-3
-2,75,-6
-1,69,-10
1,68,-10
-3,65,-9
-14,55,-10
-16,58,-10
-18,62,-11
-15,66,-10
-8,69,-8
-2,65,-7
3,63,0
8,62,9
9,60,15
10,71,19
11,74,20
11,69,18
7,65,15
4,58,15
7,57,15
11,59,16
15,63,15
17,64,14
13,65,11
11,65,10
4,63,9
-1,62,7
-1,65,6
1,69,4
2,68,4
3,66,6
4,61,9
5,59,10
6,58,9
7,58,10
10,57,12
10,56,13
9,57,15
8,63,15
6,65,14
4,67,11
-1,66,9
-6,66,8
-7,67,7
-7,64,5
-2,57,7
3,56,8
3,53,9
3,51,10
5,52,11
5,53,11
7,54,12
10,60,13
14,67,13
17,80,17
16,85,20
13,108,21
12,106,19
2,70,19
-2,60,18
-2,63,15
4,70,2
5,64,-3
5,52,-3
6,49,-1
6,45,3
8,45,3
9,47,2
10,50,0
9,53,-1
2,62,-3
-3,75,-3
-13,97,-4
-25,82,-20
-10,96,-25
-22,72,-13
-24,58,-16
-26,73,-19
24,75,3
-36,44,-24
-10,38,-22
3,51,-8
15,56,10
17,50,11
21,44,11
22,48,16
23,52,18
24,61,23
26,74,23
23,89,12
18,84,4
23,91,12
44,73,6
43,68,4
36,74,1
35,78,-1
34,94,-15
29,93,-26
19,85,-28
19,76,-27
11,76,-26
11,69,-15
1,67,-20
22,58,-17
11,46,-26
19,27,-39
42,54,2
16,63,-15
57,47,-8
66,42,-8
60,33,3
65,37,8
68,39,10
64,31,6
57,26,5
48,16,1
47,13,1
53,11,0
55,10,-2
55,8,-2
56,8,-1
59,5,-3
60,9,-1
59,12,-3
58,15,0
45,14,1
47,10,3
69,17,0
76,30,-1
65,22,-4
48,18,-6
56,20,-10
61,22,-12
68,18,-7
67,16,-2
66,14,3
59,11,4
55,13,4
66,16,-12
72,18,-4
67,17,-3
51,16,-3
49,16,-2
63,13,4
73,13,9
72,15,18
71,12,11
72,12,6
73,12,4
72,11,4
71,9,4
69,8,3
64,5,2
63,5,1
62,4,2
60,3,4
60,2,4
58,-1,6
59,-3,8
61,-2,14
61,1,14
59,2,12
54,-3,6
52,-7,6
48,-16,7
46,-23,7
43,-37,4
47,-46,-2
45,-48,-1
37,-45,6
37,-43,6
51,-31,-9
57,-19,-17
47,-1,-23
42,8,-31
35,17,-37
28,32,-41
25,38,-40
27,43,-43
26,44,-51
24,45,-52
38,57,-58
35,63,-62
14,61,-76
28,80,-83
26,123,-105
8,127,-128
21,127,-127
6,127,-79
13,127,-76
-12,127,18
49,71,-19
48,49,-34
31,22,-49
22,17,-46
18,9,-40
21,6,-37
26,4,-30
29,3,-25
32,5,-19
32,1,-12
33,-1,-13
31,-2,-6
34,-2,4
24,9,23
28,8,30
25,8,28
45,57,104
29,41,95
42,47,68
51,46,70
50,39,59
52,36,58
56,40,57
64,43,51
64,40,45
56,35,34
54,32,30
48,29,25
44,29,25
39,29,27
41,30,25
43,28,24
47,24,22
47,24,22
48,21,22
46,19,21
42,19,21
37,11,23
37,7,23
44,10,23
49,9,22
62,0,16
71,-9,8
76,-7,7
93,-3,7
104,5,6
95,9,4
76,5,4
53,1,2
40,1,6
33,3,3
36,4,9
44,5,8
65,5,1
72,5,1
82,7,0
90,9,-9
82,6,-10
64,-1,-12
55,-6,-13
48,-12,-10
44,-11,-7
49,1,5
64,13,10
69,17,9
83,28,12
91,31,15
105,41,19
101,41,23
83,40,31
65,27,45
67,25,55
87,29,61
81,22,55
60,1,31
39,3,-2
25,6,-10
9,10,-13
8,7,-16
10,4,-21
19,9,-16
42,18,-11
52,25,-25
59,26,-42
36,35,-75
40,35,-82
46,21,-106
41,12,-103
23,-6,-92
42,-23,-96
39,-24,-97
57,-13,-119
67,-1,-126
64,-1,-128
57,-1,-128
42,3,-128
26,23,-128
16,45,-128
9,91,-128
13,94,-128
7,97,-88
11,127,47
89,86,21
13,35,-107
0,62,-85
50,80,-47
40,81,-28
39,94,-4
36,100,10
44,97,11
14,103,-8
-15,113,-10
-128,127,52
-45,117,13
-66,108,46
-52,96,56
-29,76,79
14,62,72
21,51,55
29,35,49
30,34,50
45,34,56
59,21,50
65,12,47
72,1,37
67,-7,28
59,-13,18
57,-13,15
55,-2,17
65,-11,9
68,-11,8
78,-3,13
81,-5,10
89,-3,2
92,-1,3
64,-1,7
41,0,10
40,-3,8
41,-3,8
43,4,11
47,19,18
52,18,16
86,32,11
94,39,4
86,31,2
79,32,3
75,30,4
58,19,4
48,14,4
28,8,10
19,2,11
21,0,7
25,2,2
34,2,-2
54,11,-3
73,18,-1
113,53,3
113,51,9
107,52,20
96,50,20
90,38,12
77,12,15
58,5,34
47,10,36
43,25,27
44,34,21
71,49,17
81,52,18
107,52,17
112,36,16
82,22,14
59,-3,8
53,-9,9
44,-14,9
37,-13,4
22,-7,-1
24,0,-16
26,1,-25
21,1,-45
15,0,-52
21,6,-66
22,8,-77
14,8,-77
38,13,-102
50,5,-102
84,-14,-111
87,-15,-116
78,-9,-122
75,-3,-123
67,11,-128
57,20,-128
45,22,-128
19,59,-128
10,81,-128
27,115,-128
16,125,-128
-52,127,-113
127,119,-43
127,127,-93
-17,85,-86
26,111,-85
14,99,-29
25,96,-3
65,85,20
52,78,21
33,83,25
29,67,32
34,68,32
15,65,22
-83,33,-20
9,74,28
-18,58,73
-35,50,64
-49,62,79
-26,52,79
7,38,71
23,25,55
31,19,49
41,13,53
48,14,56
55,12,57
58,13,57
61,13,50
62,13,36
62,11,32
62,13,26
63,12,24
64,10,19
63,10,17
52,6,14
52,3,7
52,0,2
66,-2,4
76,-2,3
89,-3,-4
88,-2,-1
77,0,4
64,-3,5
58,-6,6
45,-11,4
43,-10,3
44,-4,5
43,-1,8
51,4,9
63,11,10
70,14,12
84,17,15
88,17,18
82,15,20
76,13,21
66,17,23
48,20,23
43,19,21
39,20,18
39,19,14
47,15,8
62,20,3
67,25,3
77,33,4
81,37,7
71,35,11
61,31,10
47,22,11
42,18,12
43,18,11
47,17,10
51,19,11
75,29,9
93,36,4
83,31,7
70,24,10
68,20,4
72,12,1
68,15,3
68,15,0
68,10,-3
56,27,23
60,47,41
55,51,36
60,44,19
64,37,23
53,16,33
46,4,32
34,-16,12
37,-19,-4
38,-17,-13
29,-10,-30
24,-7,-33
21,2,-42
21,6,-51
8,11,-54
13,25,-72
25,33,-88
33,43,-120
39,46,-122
60,50,-128
58,60,-128
41,84,-128
54,107,-128
26,118,-128
4,108,-128
-19,89,-128
7,127,-128
80,89,-55
46,127,-128
27,127,-38
44,127,-3
5,95,-11
5,74,-21
-5,55,-29
3,43,-19
7,40,-10
18,35,14
22,32,17
39,33,22
56,34,31
81,52,57
106,76,59
104,83,53
99,92,99
79,72,88
73,62,53
77,55,48
70,41,47
64,36,35
61,34,34
57,31,27
55,30,24
46,26,20
47,27,19
45,29,17
44,30,17
45,32,18
48,26,16
47,25,16
49,19,16
48,16,16
52,14,15
61,11,15
67,9,15
75,10,15
77,12,14
66,4,11
61,-2,7
53,-13,-1
56,-11,-5
56,-8,-6
63,1,-7
70,4,-8
68,6,-11
63,6,-14
64,6,-15
70,11,-19
71,14,-19
69,13,-16
65,12,-12
54,9,-7
49,5,-4
46,4,-3
44,3,-3
45,5,-1
53,7,-3
60,7,-8
74,8,-9
86,17,-8
90,15,-5
82,14,5
72,10,9
56,8,22
59,4,20
61,10,26
21,-16,-7
-21,-8,5
68,23,37
99,27,52
104,31,13
99,31,17
73,19,7
64,6,2
57,7,4
69,1,1
85,-1,-13
95,1,-23
97,7,-25
88,3,-29
84,0,-28
86,-1,-32
86,4,-27
84,6,-25
80,10,-25
79,14,-23
66,24,-13
57,26,-5
53,26,2
49,27,18
52,29,24
45,37,27
38,37,31
27,36,35
18,40,30
21,43,31
10,50,20
13,48,18
12,53,8
22,60,0
28,72,-9
42,98,-7
52,112,-17
122,119,-9
127,127,4
127,127,-16
127,127,-56
127,127,-73
127,127,-128
75,126,-128
66,117,-61
73,86,-103
75,66,-111
50,32,-102
49,21,-98
33,2,-83
28,-5,-70
4,-21,-54
-5,-34,-50
-16,-51,-33
-16,-62,-22
-20,-61,-20
-7,-66,-24
0,-70,-31
8,-62,-24
10,-54,-9
16,-36,-11
24,-30,-1
28,-32,4
41,-38,16
46,-42,20
67,-44,19
70,-33,28
73,-25,25
88,-2,14
91,9,16
92,18,16
78,24,20
64,32,27
59,32,27
66,30,13
61,24,13
55,20,14
51,15,9
41,13,8
38,10,3
74,13,-10
96,16,-16
99,28,-29
99,29,-30
84,19,-23
77,11,-20
56,-10,-17
32,-18,-12
22,-15,-6
5,-12,-1
10,-8,-2
45,8,-7
86,10,-31
114,26,-59
105,13,-55
98,18,-36
77,9,7
64,5,12
41,7,28
39,14,27
55,27,21
68,43,14
86,52,12
106,63,15
114,64,23
103,61,29
98,54,29
73,27,25
61,5,28
50,-5,18
44,-20,5
32,-25,-5
18,-17,-28
17,-14,-32
11,3,-50
-17,19,-51
-16,31,-53
12,39,-84
27,40,-103
31,23,-120
49,4,-124
61,-3,-128
54,2,-128
49,16,-128
33,69,-128
43,94,-128
32,127,-128
41,83,-117
-14,-48,-128
-27,127,68
11,93,72
76,0,-49
26,-3,-47
69,6,-49
101,24,-32
93,33,-18
75,44,-3
66,53,-4
32,83,-14
-59,113,26
-47,79,-20
-29,94,43
-46,85,62
-79,72,57
-74,61,50
-20,41,52
-5,34,51
15,29,52
35,25,57
43,23,55
59,22,60
68,21,64
56,16,77
53,10,74
50,-3,48
54,0,39
64,1,35
78,3,29
82,5,26
74,-6,19
68,-15,16
54,-29,11
49,-16,11
49,-11,13
54,3,16
62,11,18
62,12,15
70,16,16
67,11,12
69,3,12
70,3,11
65,6,8
61,8,5
54,11,4
43,8,11
44,10,15
43,13,20
43,13,18
65,14,12
77,15,10
87,22,11
86,26,15
81,21,12
63,12,9
52,8,9
39,6,10
34,4,7
34,4,5
41,4,0
49,9,-1
77,17,4
89,27,5
74,28,8
68,23,13
72,31,29
88,40,32
101,45,32
103,55,23
98,53,18
93,44,13
87,41,17
74,38,20
66,34,9
61,32,7
52,28,9
50,23,9
44,11,9
52,7,11
60,-4,4
58,-15,0
58,-15,-3
51,-16,-10
46,-16,-13
43,-4,-20
35,3,-29
28,9,-34
38,21,-44
47,27,-47
34,31,-44
29,33,-49
43,37,-55
34,41,-53
37,42,-56
44,40,-57
43,36,-54
37,37,-49
40,38,-55
41,40,-62
40,38,-66
39,41,-76
45,48,-94
42,49,-108
36,49,-121
34,45,-128
42,83,-128
28,123,-128
27,127,-128
71,127,-128
62,127,8
49,127,55
87,110,12
61,69,-26
67,61,-21
58,52,-24
36,45,-7
26,44,7
29,34,15
30,39,12
16,41,5
-3,52,19
-17,52,12
-18,49,-3
-40,82,71
-60,58,51
13,72,111
25,60,97
8,42,89
4,41,87
24,26,75
32,21,69
43,21,58
46,21,57
40,15,48
36,11,39
37,11,37
56,16,34
65,15,31
75,13,21
76,16,21
72,12,20
51,-1,19
44,-9,17
41,-15,16
41,-16,17
45,-13,20
58,0,29
66,7,35
74,19,40
77,15,39
81,18,43
76,21,43
64,23,35
44,21,28
38,20,27
31,15,27
33,14,23
39,12,11
48,11,7
70,19,9
82,22,8
88,26,9
87,32,13
75,27,15
45,15,13
39,8,8
37,3,3
38,2,5
48,6,10
61,11,12
74,8,11
92,19,16
111,31,21
120,43,28
121,58,51
109,57,51
103,62,38
95,60,34
83,57,19
75,58,13
68,60,0
69,51,-17
59,39,-27
40,20,-37
37,15,-41
37,8,-43
27,1,-49
28,-1,-54
19,-7,-79
0,-14,-87
8,-14,-104
27,-15,-113
51,-13,-128
61,-12,-128
68,-10,-128
49,13,-128
45,41,-128
27,43,-128
23,41,-128
42,67,-127
-46,84,127
127,113,42
47,45,-32
-27,28,-41
52,36,-77
71,47,-55
34,40,-12
34,25,-17
43,24,-15
45,31,3
39,40,16
52,58,50
6,76,59
-27,59,42
3,70,42
9,65,53
-54,65,52
-53,61,56
-28,56,59
-17,51,56
8,44,57
23,40,57
27,39,55
39,33,51
42,31,48
58,29,50
67,22,43
66,18,40
61,8,33
57,3,30
61,0,26
61,-1,24
69,3,20
74,4,13
71,3,9
63,0,6
58,-3,7
52,-8,8
52,-11,8
54,-13,11
63,-3,17
67,-1,20
75,11,24
75,14,24
73,16,27
70,19,28
71,22,27
58,18,20
53,18,18
48,18,15
46,18,12
46,18,7
49,18,4
53,20,8
60,22,12
66,23,10
74,33,9
73,32,15
57,29,19
54,28,19
45,27,18
49,25,8
54,25,5
61,24,1
61,21,0
57,17,7
58,15,8
60,14,11
79,18,19
78,19,26
74,18,41
91,30,46
97,54,43
95,61,39
84,66,31
77,63,19
70,57,17
53,38,7
49,30,5
43,21,-9
35,11,-27
34,10,-36
39,11,-46
30,9,-46
6,9,-58
-2,11,-71
-20,8,-94
14,4,-128
37,-1,-128
52,-14,-119
52,-13,-113
62,19,-128
57,30,-128
44,59,-128
23,77,-128
23,87,-128
32,121,-128
13,120,-128
16,75,39
32,127,54
65,78,-76
-18,38,-110
15,57,-83
25,47,-31
27,46,-28
41,43,-26
45,43,-13
38,46,5
21,55,9
32,54,8
-34,77,39
-20,73,46
-13,67,54
4,72,80
-22,69,75
-27,52,73
-6,42,74
6,32,68
11,30,65
25,30,59
43,40,63
48,43,61
55,34,58
52,26,54
46,17,45
47,11,39
51,5,31
61,8,27
66,8,25
75,11,20
79,9,18
69,2,12
54,-9,8
50,-14,5
46,-15,4
46,-13,4
54,-6,7
59,-2,8
70,6,16
75,14,20
75,20,28
78,23,30
74,25,29
60,26,25
51,24,25
37,20,22
33,16,21
44,13,19
49,10,8
55,10,5
74,24,6
74,27,4
73,28,6
76,24,12
66,24,19
22,-4,-4
30,-12,3
74,21,37
58,-4,27
83,1,-6
90,6,-10
100,3,-23
83,-17,-16
77,-22,-17
72,-23,-24
76,-25,-33
85,-24,-57
93,1,-42
90,8,-41
85,23,-40
76,29,-26
52,35,-7
43,36,0
39,42,-5
40,53,13
32,59,9
34,64,23
27,66,33
35,63,37
30,60,40
37,57,44
102,85,15
108,119,8
127,127,-15
113,111,2
127,111,0
49,90,-128
127,63,-119
84,53,-36
78,49,-46
53,48,-69
52,42,-70
45,25,-79
39,13,-79
36,-11,-77
19,-34,-70
6,-46,-59
-8,-62,-32
-2,-65,-22
-12,-67,-14
-15,-66,-15
-10,-73,-35
-12,-82,-40
-4,-76,-40
1,-55,-29
7,-45,-25
17,-32,-16
25,-28,-14
51,-24,-14
67,-21,-8
71,-19,3
73,-19,15
78,-18,13
75,-13,38
92,-7,48
92,0,55
83,-2,34
77,1,32
55,9,6
59,18,8
57,24,10
63,23,5
60,24,6
56,26,9
53,28,11
50,31,11
48,31,11
46,34,14
54,39,12
61,42,10
62,40,8
63,37,8
68,35,8
69,35,8
70,31,7
68,25,10
63,21,12
49,13,17
46,8,19
41,3,22
41,0,22
50,-1,21
33,-2,11
36,1,6
79,12,8
84,16,16
97,19,2
96,14,-6
101,10,-9
90,-2,-9
82,-9,-9
69,-20,-9
62,-23,-11
53,-19,-15
62,-8,-14
69,-7,-15
87,2,-16
95,2,-19
127,-1,-20
123,8,-10
103,15,-9
86,19,-8
70,29,-4
62,33,0
57,32,-1
42,32,5
37,31,8
16,27,12
11,21,14
11,21,15
13,24,16
15,26,15
23,36,22
27,45,21
62,52,24
51,58,11
63,65,0
71,88,-16
81,93,-25
113,108,-41
110,120,-39
127,123,-58
114,127,-45
127,127,-64
122,109,-128
61,91,-105
81,87,-39
76,71,-41
69,62,-58
51,48,-59
44,38,-61
44,21,-65
47,12,-62
18,-11,-47
3,-27,-34
-18,-54,-17
-24,-65,-9
-24,-65,-10
-5,-60,-18
-7,-67,-24
-7,-60,-38
-3,-59,-26
3,-50,-22
8,-35,-8
12,-29,-1
22,-21,14
28,-21,19
41,-29,25
62,-43,26
74,-45,23
87,-31,13
88,-18,15
82,9,29
81,20,39
65,33,34
70,21,9
63,17,-3
61,27,-21
50,38,-24
65,48,-21
75,43,-17
79,29,-7
63,23,-2
52,22,-1
40,21,2
39,21,2
39,24,0
38,24,-1
52,29,-1
70,29,-5
81,30,-7
93,36,-3
86,33,1
68,15,10
64,7,12
44,-6,11
24,-8,14
39,-3,12
71,5,-5
67,3,-13
79,7,-28
88,5,-28
111,2,-35
76,-6,-18
64,-7,3
16,-11,17
23,-6,34
43,3,31
62,20,27
71,30,26
76,52,23
86,62,26
93,74,29
93,70,34
93,53,39
94,44,46
71,21,38
67,8,19
60,1,6
26,-11,-2
17,-7,-9
18,-8,-26
32,-6,-34
47,2,-34
57,16,-43
39,21,-41
26,32,-56
29,33,-71
18,25,-72
40,23,-90
45,17,-94
45,12,-94
51,18,-107
48,51,-128
54,75,-128
30,108,-128
27,126,-128
39,113,-123
77,64,-128
-117,127,105
127,45,-51
39,37,-63
22,28,-88
41,44,-49
31,41,-30
35,31,-20
36,27,-19
45,30,-2
41,35,17
38,39,20
23,42,10
11,60,29
-14,49,2
-19,63,30
-28,73,53
-57,93,50
-87,86,39
-57,78,48
-42,71,50
0,56,61
21,56,56
26,46,38
38,36,17
48,32,12
57,28,14
56,28,14
58,32,11
64,35,8
71,37,6
70,36,9
63,32,3
57,28,-2
56,31,-5
56,52,-3
46,64,-6
40,79,-12
21,78,-13
14,79,-13
-8,72,-13
-5,72,-14
18,67,-15
24,65,-17
34,59,-17
31,48,-17
28,46,-16
26,51,-18
26,55,-21
26,58,-21
25,58,-19
25,55,-16
26,55,-16
26,55,-15
24,57,-15
25,61,-14
26,62,-13
25,62,-12
24,62,-9
27,63,-7
27,64,-7
27,64,-7
26,65,-7
24,68,-10
24,69,-9
20,62,-6
23,58,0
27,59,0
25,55,4
24,57,4
25,59,-1
22,61,-4
17,60,-5
12,60,-5
11,61,-2
11,57,3
12,56,6
17,55,13
23,57,17
24,58,21
28,60,27
29,60,26
30,58,22
30,58,20
28,58,14
28,58,12
27,56,10
25,54,6
24,54,7
23,50,5
23,51,4
27,56,5
34,58,7
35,58,9
38,56,11
38,54,10
43,50,8
45,50,8
47,48,7
53,50,8
55,50,10
57,52,12
55,52,12
42,41,14
40,33,12
49,34,6
61,37,4
84,35,11
49,22,-15
48,12,-12
-10,2,-5
36,44,61
23,14,17
45,28,25
58,29,8
83,30,-9
83,33,-2
76,39,3
71,27,-8
66,16,-23
69,10,-26
75,9,-31
80,12,-40
96,35,22
73,15,-24
80,19,-41
78,21,-55
84,19,-50
80,19,-30
74,32,-21
62,33,-20
42,40,-6
36,53,20
28,55,31
20,58,30
16,63,23
17,60,32
12,68,28
32,75,25
65,99,-4
80,106,-27
117,108,-81
127,96,-91
127,47,-50
127,127,127
127,-48,-128
56,9,-48
53,10,-56
75,11,-80
83,4,-82
58,-19,-69
42,-28,-56
32,-52,-45
15,-63,-40
14,-67,-43
-7,-65,-42
-17,-63,-40
-18,-64,-46
-15,-62,-47
-8,-53,-36
4,-41,-29
12,-34,-26
29,-19,-14
39,-14,-7
58,-10,6
71,-16,20
72,-19,16
84,-14,22
87,-13,19
83,-10,30
78,-7,29
80,-4,36
69,-5,26
64,-7,24
70,-7,20
63,-6,14
63,0,11
60,2,10
68,9,5
67,16,2
64,19,-2
68,24,1
69,25,0
67,30,0
51,34,-9
60,45,-8
59,43,-5
57,44,-3
51,43,2
49,38,1
47,32,-3
48,32,0
57,37,6
59,38,6
61,36,6
60,29,8
56,26,8
54,18,7
54,15,7
51,11,6
57,12,7
59,13,8
64,15,9
66,17,11
62,17,12
59,17,13
56,17,12
59,16,9
63,16,7
67,15,5
67,14,5
63,11,2
58,10,1
58,10,1
59,10,2
60,11,3
66,14,4
67,15,3
69,16,4
65,16,6
62,16,7
57,17,9
56,17,10
56,18,11
57,18,10
59,18,9
59,17,10
60,17,10
59,18,11
59,18,12
56,17,11
56,16,12
56,18,13
57,20,14
58,22,14
59,22,13
59,22,13
58,21,12
58,20,12
57,19,11
58,18,11
58,18,11
59,19,12
58,18,11
59,18,12
59,18,12
59,17,11
59,17,12
58,17,12
58,17,11
59,17,12
59,17,12
58,16,11
59,17,12
59,17,12
59,17,11
58,17,11
58,17,12
59,17,12
60,17,13
60,17,13
60,19,12
56,18,11
50,14,11
51,13,13
63,19,18
72,23,12
65,20,8
49,12,4
43,11,6
48,15,14
58,17,16
71,25,20
57,28,29
56,24,21
55,22,-8
61,18,-16
58,12,-11
56,15,-2
59,17,10
61,18,6
58,19,1
55,15,-8
54,12,-16
58,15,-10
61,21,4
63,24,34
71,18,21
71,17,6
56,22,-4
53,23,-5
56,20,0
61,19,2
65,18,0
66,15,-6
67,13,-7
58,18,-1
57,18,4
56,21,12
52,25,15
53,26,12
58,27,4
58,28,2
57,24,1
58,22,3
56,18,7
55,19,12
57,20,10
63,18,5
60,19,5
57,23,6
58,23,5
57,20,4
55,19,3
53,19,4
59,21,4
79,27,4
63,27,2
45,18,-6
22,39,46
69,46,61
41,27,24
33,24,14
42,23,16
64,24,20
60,25,20
67,10,24
58,10,22
61,3,15
90,-1,13
103,-3,24
127,1,18
121,1,9
99,-5,-10
82,-4,9
83,-2,19
61,-8,11
57,-7,0
51,-10,-25
53,-9,-27
61,8,-28
87,27,-25
89,39,-16
83,52,-8
71,53,2
27,54,18
20,54,27
11,59,25
23,79,38
25,94,59
28,101,65
37,100,56
23,108,11
42,105,-6
77,123,-47
83,127,-64
127,127,-91
127,127,-123
127,103,-118
127,76,-128
127,21,-128
127,15,-128
73,41,-120
75,33,-128
68,-6,-128
59,-21,-128
19,-39,-128
-23,-46,-83
-26,-54,-54
-36,-88,-22
-35,-99,0
-18,-96,26
-5,-104,18
14,-93,-1
12,-73,-31
8,-65,-30
7,-42,-11
10,-30,-3
17,-18,1
25,-15,1
56,-12,-7
88,-24,-17
100,-32,-15
91,-40,-3
86,-40,4
72,-22,29
65,-16,28
71,-10,22
79,-1,26
76,-3,23
72,-7,13
73,-7,15
70,-4,10
74,-2,15
67,1,16
62,0,10
60,-1,8
55,-5,6
53,-5,4
58,-4,-4
59,-4,-7
55,-3,-8
55,-4,-13
50,-3,-14
43,2,-11
45,4,-11
42,12,-4
80,41,11
96,60,11
109,69,9
115,75,11
79,77,22
65,66,24
44,45,14
35,13,4
23,1,-5
45,-5,-1
32,-7,-2
26,-10,-6
66,-5,-8
63,5,-29
91,18,-33
94,38,-15
113,45,22
104,21,24
62,-6,-4
24,-15,22
14,-19,30
10,-16,16
17,-19,8
3,-28,-3
47,-47,-9
111,-37,-20
127,-17,-20
127,-31,-10
127,15,-2
122,6,20
103,-4,50
97,1,43
78,14,18
76,18,10
52,36,-10
34,40,-15
25,38,-16
7,24,-18
3,17,-26
-4,14,-47
8,10,-86
14,10,-86
27,17,-98
35,22,-96
30,14,-95
19,1,-92
37,-36,-119
56,3,-51
91,33,-4
127,127,81
127,39,66
106,42,11
86,52,40
76,47,-5
55,48,2
50,47,2
48,45,7
43,46,-1
43,41,-9
47,45,-5
45,28,-4
40,23,-8
43,21,-5
54,23,0
66,21,-6
75,19,-10
72,15,1
73,0,9
76,-2,6
74,-6,3
91,9,15
74,5,7
66,15,25
58,10,19
58,11,4
45,1,7
41,-4,9
38,1,12
36,5,10
49,10,0
57,14,-5
68,21,-9
80,9,-6
79,13,-2
63,0,6
57,-7,9
43,-21,16
43,-14,27
60,-6,42
99,20,64
99,28,58
110,36,53
99,36,44
57,17,27
28,7,15
14,1,14
3,-7,12
2,-8,8
-3,-8,3
-3,-8,1
16,-14,-5
73,-27,-4
127,-10,0
127,51,8
127,23,9
116,19,4
107,-4,0
83,-23,-12
55,-11,-3
43,-13,0
39,-12,-5
42,-5,-9
59,5,-15
69,13,-18
86,26,-12
90,37,-3
80,41,7
63,47,18
57,46,15
41,37,18
35,34,18
33,27,17
42,25,18
52,23,22
57,28,30
56,27,33
49,25,37
19,29,39
5,31,44
-18,46,36
-34,52,32
-23,40,7
-30,37,1
-12,74,32
2,84,32
65,85,50
83,122,50
83,127,27
103,127,8
84,127,-20
119,123,-1
10,127,15
11,127,-51
40,127,-51
56,127,-55
54,99,-33
21,88,-18
20,66,-27
32,50,-32
32,51,-20
32,41,-19
36,36,-20
31,38,-9
27,42,-4
26,41,-4
30,48,-1
31,49,4
42,47,3
47,45,5
51,24,21
54,11,26
67,2,40
93,-4,38
99,-7,47
90,-10,46
84,-5,43
62,-1,40
58,-1,32
49,5,33
33,2,33
35,2,28
46,9,20
51,12,18
66,30,17
65,38,15
61,35,11
55,38,14
51,37,15
40,33,16
34,28,14
36,15,11
50,5,6
63,4,5
84,14,16
94,14,19
99,13,22
104,13,21
106,20,19
73,12,10
58,5,5
32,-6,6
25,-12,7
15,-12,6
13,-9,8
12,-2,11
35,4,10
58,9,6
101,50,13
103,53,15
118,50,2
104,57,7
98,63,28
32,27,29
7,3,21
36,-7,-14
37,9,-1
43,3,-16
54,20,-8
71,27,21
74,39,44
95,56,41
124,76,28
115,76,18
124,73,15
110,72,6
89,59,-5
80,54,-12
84,50,-15
69,36,-16
64,28,-19
54,10,-28
45,2,-35
42,-7,-44
19,-10,-35
12,-5,-41
11,1,-62
8,4,-67
23,18,-83
17,16,-87
17,13,-93
58,0,-125
64,-11,-127
70,-20,-125
67,-18,-123
45,10,-128
38,25,-128
15,47,-128
-2,61,-128
-6,63,-128
2,66,-128
14,79,-128
9,127,-17
127,127,-105
-5,127,-54
17,115,-32
37,105,-32
16,77,-16
31,61,-14
50,51,2
57,41,13
54,45,16
30,40,19
34,48,28
-2,30,1
39,61,36
30,64,76
-24,76,79
-23,79,85
-34,67,81
-23,65,76
-5,54,63
9,53,60
26,48,52
35,39,33
42,35,26
48,24,20
54,20,20
59,10,22
62,6,21
77,7,18
82,0,18
79,-1,20
69,1,22
70,-5,21
64,-20,19
68,-20,12
70,-24,6
72,-24,4
74,-20,4
74,-3,8
74,9,7
71,18,1
74,23,2
56,15,-2
45,-7,-11
38,-10,-6
32,-8,3
32,-3,4
46,10,5
77,31,8
101,41,6
108,55,5
99,56,7
82,49,8
72,43,7
54,29,10
35,15,12
29,11,12
17,-1,10
13,-4,7
10,-1,4
20,2,2
59,16,-17
99,40,-18
119,57,-24
121,55,-16
106,44,-8
84,30,6
71,25,15
51,25,29
48,44,35
49,55,34
66,64,32
69,65,30
76,53,30
80,44,30
76,23,24
59,-1,15
55,-9,13
40,-22,7
30,-26,3
17,-27,-7
20,-19,-14
22,-16,-15
13,-9,-19
15,-3,-22
27,15,-42
29,23,-46
37,40,-61
28,50,-65
26,52,-77
38,49,-102
37,43,-107
29,21,-87
32,19,-89
41,25,-118
50,58,-128
44,59,-128
29,99,-128
0,124,-128
-12,127,-128
10,127,-128
52,127,-128
127,108,26
81,74,-13
38,22,-93
40,40,-91
47,50,-56
49,57,-42
44,55,-30
41,58,-22
37,62,-15
19,76,4
12,80,11
3,84,10
-9,95,11
-128,125,90
-85,107,69
-40,92,60
-39,64,54
-35,55,62
-24,50,76
-10,50,78
2,50,76
27,42,58
31,30,47
35,11,43
39,3,42
43,-4,41
56,0,36
65,3,32
79,0,18
86,0,15
82,0,9
72,-3,7
51,-12,7
35,-11,11
34,-6,16
30,-6,16
36,-3,12
40,2,5
43,9,6
68,22,15
105,28,10
122,31,15
113,33,16
105,29,21
82,32,31
67,27,30
44,16,19
21,6,16
13,-1,15
10,-6,12
11,-6,9
17,-7,7
32,-1,5
90,29,-6
120,69,-10
115,67,-5
78,52,9
60,42,19
29,23,20
36,18,16
68,8,7
3,-9,-1
-31,-11,1
87,27,60
60,17,38
83,28,24
98,37,26
116,28,19
107,20,4
87,3,0
72,-7,-2
77,-13,-14
93,-6,-36
91,-1,-33
83,7,-24
72,1,-16
69,2,-15
63,-1,-12
62,0,-10
56,-1,-20
64,2,-29
65,2,-29
74,3,-18
77,8,-11
90,27,0
91,31,1
81,44,16
53,57,23
36,60,20
14,66,23
7,72,23
-3,72,40
1,72,28
15,72,28
16,78,18
31,90,3
127,124,-11
127,127,-9
127,127,-30
127,93,-29
127,80,-114
127,58,-104
126,92,-66
82,76,-92
79,62,-116
50,37,-104
37,28,-95
36,5,-82
27,-25,-62
15,-41,-53
-6,-58,-41
-13,-60,-38
-46,-60,-36
-53,-60,-33
-39,-56,-54
-36,-48,-67
-4,-44,-60
6,-46,-49
15,-38,-42
30,-23,-21
38,-18,-11
50,-9,7
66,-4,19
67,-5,26
76,-3,31
86,-2,29
111,-5,29
85,0,67
75,8,61
81,18,41
67,17,38
55,20,36
74,24,23
70,32,18
82,35,18
84,34,6
56,22,8
42,16,9
34,8,6
11,7,6
26,8,4
67,11,-3
95,27,-3
111,39,-8
101,36,-12
93,14,-15
69,12,-12
28,-2,-6
35,-4,-4
27,-4,-9
38,-2,-11
40,3,-13
65,19,-1
80,28,-2
111,43,-9
105,40,-2
88,32,12
49,25,36
43,31,37
44,42,32
54,48,31
67,54,35
79,51,39
81,48,42
75,36,44
73,29,43
60,13,39
52,3,29
50,0,24
46,-6,12
40,-8,7
32,-11,0
33,-13,-4
34,-12,-8
32,-9,-15
33,-6,-22
35,6,-38
31,9,-42
27,12,-54
27,14,-64
21,11,-71
25,13,-89
30,14,-98
44,14,-107
50,12,-109
52,27,-128
47,40,-128
37,62,-128
20,66,-128
10,57,-128
8,50,-128
17,90,-128
5,127,-128
6,127,-128
66,127,71
103,66,-12
71,23,-45
46,17,-83
53,33,-77
73,52,-40
76,64,-20
63,83,17
37,100,15
22,107,9
-5,111,-10
-31,125,-3
-76,96,-10
-37,99,12
-36,75,32
-43,56,38
-37,55,50
-27,54,53
2,53,56
33,45,61
34,35,57
33,13,54
44,7,62
49,0,66
47,-10,64
52,-10,71
54,-13,64
47,-10,38
52,-9,34
62,-13,27
71,-13,26
71,-14,21
69,-16,19
66,-17,20
54,-21,18
48,-19,17
38,-13,17
36,-7,19
34,2,15
48,7,11
89,26,19
109,35,17
103,32,8
94,30,13
82,23,12
53,20,15
44,18,20
35,16,20
23,10,14
20,8,12
25,11,9
36,15,5
68,30,-4
85,36,-11
95,39,-16
99,43,-2
89,40,8
52,25,25
43,19,29
36,17,32
42,20,36
59,34,40
77,50,40
90,59,38
117,75,38
117,77,35
107,73,28
98,67,21
74,51,6
62,35,-7
60,26,-12
50,13,-25
38,7,-31
22,5,-36
22,11,-51
34,12,-58
10,8,-62
4,16,-77
-3,28,-90
-14,33,-86
24,38,-108
55,18,-125
66,5,-127
70,14,-128
58,23,-128
46,70,-128
35,96,-128
11,118,-128
38,117,-128
-47,126,-128
-44,127,70
18,115,79
91,24,-72
48,15,-78
70,31,-68
90,45,-28
81,50,-20
68,57,-9
59,61,-8
36,71,-4
15,80,-3
-9,94,-5
-60,117,25
-103,106,33
-69,100,61
-59,78,55
-48,53,39
-38,44,45
-19,40,56
3,46,60
17,49,60
39,45,65
29,42,80
36,32,62
42,18,55
43,6,47
57,3,47
63,4,46
81,2,30
83,4,25
79,-6,14
81,-8,12
65,-12,10
53,-19,10
44,-21,11
43,-18,16
46,-6,18
43,14,27
69,27,19
72,36,20
90,44,19
92,39,11
90,31,9
84,30,12
66,24,19
45,14,22
37,9,23
26,0,20
23,-4,17
28,-4,11
34,-2,9
60,11,12
95,34,11
100,43,12
94,39,11
82,33,12
55,17,16
43,10,17
26,1,23
24,0,17
26,-4,8
54,7,19
51,6,10
15,-5,-13
77,64,63
124,57,101
114,39,19
90,27,17
80,28,15
80,21,7
74,7,-9
81,12,-13
83,21,-21
83,20,-19
79,18,-20
68,16,-16
59,11,-10
43,1,-6
45,-7,-6
39,-16,-9
39,-36,-6
40,-56,-7
125,-31,6
127,-1,-18
127,34,-45
127,65,-6
98,63,5
59,55,-4
44,53,3
25,51,12
22,49,16
16,45,21
-3,43,6
-5,43,9
5,59,10
26,71,16
27,75,38
29,66,32
32,63,13
35,115,-9
91,127,-25
110,127,-52
125,127,-48
127,127,-38
127,127,-25
127,127,-128
127,127,-128
84,127,-128
83,103,-82
82,87,-84
67,56,-90
68,47,-82
58,26,-74
49,4,-64
41,-7,-66
18,-37,-66
-1,-46,-59
-20,-54,-45
-34,-59,-40
-58,-65,-31
-40,-77,-24
-57,-73,-64
19,-62,-47
15,-55,-38
2,-30,-8
2,-23,2
18,-10,16
40,-8,29
43,-25,33
57,-57,36
73,-63,31
93,-38,18
98,-4,13
103,28,33
62,24,35
10,22,17
27,45,-13
56,57,-12
84,56,7
72,37,18
65,30,14
58,33,12
52,34,11
47,36,5
53,41,3
62,46,1
72,51,6
74,51,8
78,38,11
70,31,12
60,4,7
57,-4,9
31,-6,22
32,4,29
36,13,30
35,23,24
39,26,-12
122,14,-84
127,-4,-46
37,-12,-33
27,12,24
34,25,46
68,70,53
107,90,37
127,108,21
127,107,14
123,78,2
85,42,13
71,36,15
49,38,-6
44,37,-31
18,20,-69
16,14,-89
-1,5,-96
-3,12,-84
-10,13,-85
2,9,-116
3,10,-128
34,7,-128
42,25,-128
46,51,-128
33,85,-128
30,113,-128
25,127,-128
9,127,-128
-41,118,-124
-38,127,54
-6,127,69
62,63,7
47,13,1
29,-29,-63
24,-41,-93
53,1,-80
91,37,-50
89,54,-34
58,72,-18
44,78,-17
-10,109,-20
-21,127,-26
-69,127,0
-93,127,23
-85,127,9
-75,102,9
-65,82,9
-37,72,11
-22,72,11
6,81,13
33,81,11
43,77,9
51,67,11
52,64,15
44,50,15
40,47,14
47,51,24
55,43,11
65,41,4
75,31,-6
70,26,-7
72,16,-4
73,13,-5
70,10,-8
81,9,-9
78,8,-10
72,0,-13
68,-8,-9
65,-13,-8
64,-18,-7
65,-18,-7
64,-15,-7
69,-14,-9
72,-4,-9
74,2,-9
84,20,-10
76,33,-9
68,34,-9
66,38,-12
66,42,-13
60,60,-8
56,64,-8
46,58,-9
36,49,-8
35,43,-8
37,31,-7
36,26,-2
38,25,5
37,26,8
41,24,9
58,23,6
43,23,3
44,23,1
47,22,-6
65,31,5
44,30,-8
33,41,-7
35,52,-5
38,62,-4
47,89,-5
50,95,-8
38,88,-7
30,85,-4
16,72,1
12,58,1
12,52,0
12,40,-1
13,37,0
14,41,2
16,43,1
17,46,2
16,56,-2
19,63,-4
16,72,-12
17,70,-13
17,75,2
16,86,7
18,67,9
15,62,16
8,70,13
-5,76,3
-5,74,0
0,62,-1
10,49,2
12,45,6
19,33,21
12,23,16
27,8,23
32,7,27
53,8,13
64,12,17
60,19,12
29,41,-6
7,60,-21
-6,85,-54
-5,85,-51
0,106,-23
-2,100,-37
-3,98,-32
-32,88,-29
-45,98,-31
-50,103,-41
-33,118,-31
33,127,11
60,127,2
77,127,-5
47,127,118
126,109,26
67,73,39
28,33,41
2,-9,29
19,7,23
43,29,53
37,119,-1
8,65,-128
-36,88,-88
-23,91,-61
35,72,-16
25,50,-7
17,47,-6
14,41,0
11,41,0
9,49,-7
-1,62,-16
-4,66,-19
2,81,-24
10,84,-27
21,74,-29
31,62,-28
50,34,-17
63,5,9
56,-15,18
52,-38,23
54,-42,25
67,-24,23
62,-21,22
55,-18,26
44,-25,27
29,-24,34
37,-25,25
35,-28,22
38,-45,18
45,-49,28
48,-38,36
48,-22,37
67,-10,34
108,21,27
100,23,34
85,13,22
86,8,5
82,-3,-11
59,-15,-19
56,-20,-27
47,-19,-30
40,-14,-31
46,2,-25
52,5,-20
63,-2,-11
74,-34,-5
74,-50,1
71,-86,22
62,-101,23
46,-95,4
36,-80,-8
12,-42,-17
30,-3,-38
24,9,-38
24,38,-44
18,43,-45
19,26,-48
27,9,-63
29,4,-66
27,5,-67
29,10,-65
26,29,-76
26,43,-84
41,88,-115
26,120,-128
21,127,-128
6,127,-128
-7,127,-128
-9,127,-126
16,127,-128
35,127,-7
47,84,-9
29,60,-13
9,38,-21
13,32,-19
22,27,-11
27,22,-6
37,12,-3
40,3,-4
41,0,-2
46,-8,-4
38,-9,-8
20,-4,12
8,-2,21
-7,4,18
-87,59,127
-24,26,110
-8,57,124
-13,45,98
-11,42,81
-5,41,81
8,40,74
12,28,54
15,25,46
30,22,37
36,22,39
47,22,37
48,22,31
49,21,31
39,22,32
34,24,32
40,22,37
39,21,36
44,19,33
46,17,28
58,9,15
50,5,21
51,-3,23
73,-30,17
82,-34,17
91,-31,19
93,-20,19
84,-21,15
58,-21,7
53,-14,6
40,-8,6
33,-8,8
30,-5,8
47,2,6
53,2,5
78,3,5
88,2,4
91,6,3
91,7,1
73,4,-3
54,-7,-11
48,-8,-8
34,-8,0
31,-7,2
39,5,9
50,15,17
85,37,33
124,61,24
120,66,29
103,68,44
95,66,52
67,69,46
64,73,39
77,77,30
82,75,30
82,71,24
70,49,1
66,35,-3
58,16,-16
46,8,-25
19,9,-41
10,15,-53
10,13,-60
20,7,-77
21,4,-89
24,0,-104
28,2,-104
53,15,-128
53,23,-128
60,41,-128
57,64,-128
60,63,-128
5,108,-128
16,127,-128
16,117,-128
-116,127,103
113,106,-33
-41,84,-79
-76,58,-55
5,42,-49
30,23,-23
31,8,-31
54,12,-27
63,20,-20
53,19,-11
39,23,0
32,28,2
-60,60,37
-13,83,53
-33,104,69
-46,120,74
-55,106,71
-48,91,65
-25,60,52
0,43,45
8,36,41
17,27,31
23,27,30
26,34,34
35,40,38
63,45,54
44,45,55
59,46,57
59,30,44
51,25,45
34,17,45
33,15,40
46,8,29
60,7,23
71,7,21
81,6,22
71,4,19
65,-8,10
55,-7,6
48,-1,8
64,10,5
76,23,0
87,30,-8
87,30,-11
80,25,-12
69,23,-10
42,16,-2
31,10,5
28,10,7
34,15,11
43,21,13
73,29,12
98,37,-3
98,42,2
91,29,12
74,22,8
44,10,8
33,4,15
18,-1,12
26,-7,12
33,-4,13
44,-2,7
71,4,5
96,37,1
112,49,-2
127,68,-3
105,52,17
80,46,40
55,37,37
53,39,37
71,56,45
80,63,41
87,66,38
86,59,32
77,48,26
59,27,17
50,20,13
33,8,1
21,4,-2
9,1,-9
8,1,-25
9,0,-36
11,4,-48
23,8,-58
23,8,-79
15,2,-79
24,4,-103
58,16,-128
70,19,-128
67,27,-128
72,46,-128
66,98,-128
42,95,-128
14,124,-128
-9,127,-128
17,114,-128
-66,127,-128
11,127,92
126,70,8
24,-15,-70
61,-6,-102
71,19,-57
64,20,-32
73,27,-7
71,31,-5
50,47,2
18,68,9
-4,80,10
-95,109,13
-98,93,5
-75,85,36
-61,92,41
-56,76,36
-30,67,39
-9,65,43
18,57,42
29,50,38
49,37,40
52,34,42
57,35,56
59,33,61
56,31,60
64,52,84
63,43,72
55,31,43
52,25,33
43,7,34
46,6,39
46,4,36
55,1,34
59,6,31
62,7,21
66,5,17
84,7,6
88,18,-4
85,18,-4
75,24,-5
70,24,-5
46,22,0
33,17,5
27,11,12
28,13,12
30,15,13
50,29,24
66,34,25
93,48,17
97,48,19
94,31,19
76,23,22
56,14,16
38,-8,11
21,-13,13
17,-6,13
23,5,22
41,15,25
63,40,42
72,46,45
84,58,69
84,61,81
91,60,92
89,52,90
86,51,83
92,61,57
95,66,48
113,74,43
127,83,38
114,69,19
90,42,-3
78,29,-8
45,10,-21
33,6,-24
28,17,-41
34,22,-50
23,27,-60
10,44,-66
18,54,-86
7,51,-104
17,50,-114
59,35,-128
72,26,-128
79,29,-128
70,62,-128
60,90,-128
22,118,-128
14,127,-128
15,127,-128
9,127,-128
20,118,-118
127,127,-23
127,86,-128
-35,33,-128
21,71,-128
49,73,-53
67,73,-12
68,71,-6
47,67,3
48,63,5
11,71,-1
-13,80,-3
-128,86,-4
-94,90,4
-90,77,28
-64,78,49
-53,66,47
-21,61,53
-1,59,56
22,47,46
37,33,38
41,32,42
43,34,54
46,33,62
45,35,74
54,36,79
55,38,74
47,25,49
44,23,44
39,14,38
43,8,33
52,-2,23
53,-5,18
62,-8,13
71,-11,8
82,-11,4
101,11,-6
103,12,-11
84,13,-19
78,10,-15
60,7,-2
39,3,2
34,1,4
25,-3,7
23,-1,8
35,10,13
50,19,19
96,41,36
110,40,20
102,31,19
82,13,20
69,10,24
37,13,28
27,7,23
21,1,16
18,-1,8
22,0,6
24,-6,2
38,-2,6
98,19,4
103,43,-4
91,18,-20
50,40,50
92,42,78
45,4,18
87,-5,21
91,-10,11
96,-24,-22
93,-19,-29
85,-15,-23
83,-10,-23
81,-10,-26
81,-10,-31
82,-7,-43
86,1,-33
82,2,-33
100,12,-34
105,18,-34
97,39,-30
59,52,-10
37,53,-6
6,57,-3
-14,59,2
-4,65,3
0,70,13
23,73,26
26,69,39
39,72,41
61,79,27
85,101,12
127,127,-29
127,127,-54
127,113,-44
127,113,-28
127,34,-128
99,76,-62
113,80,-72
55,46,-88
45,44,-82
44,33,-71
54,21,-75
45,1,-67
36,-16,-50
25,-23,-48
1,-38,-40
-4,-44,-35
-28,-51,-33
-35,-55,-26
-25,-57,-30
-9,-53,-50
0,-48,-33
9,-41,-29
10,-36,-21
17,-28,-3
39,-20,16
58,-23,22
90,-32,29
88,-32,34
83,-29,41
79,-26,27
66,-7,43
58,3,49
58,13,47
71,15,37
66,14,27
73,27,28
71,27,26
66,21,20
59,19,20
49,17,20
39,12,19
37,9,16
44,5,7
56,6,3
87,14,-2
105,33,3
101,33,1
94,29,5
83,25,8
61,10,6
53,1,2
39,-7,0
27,-8,4
25,-6,7
34,0,7
51,5,9
87,24,12
88,28,13
88,24,10
98,20,6
82,16,4
36,7,13
9,3,22
-8,-10,9
41,-8,-28
30,8,-34
92,22,-9
84,34,-19
118,58,-19
117,53,-5
109,51,20
63,41,34
61,42,52
60,59,51
73,72,50
89,81,37
95,84,35
91,76,28
91,64,18
90,56,16
98,40,3
82,30,2
62,15,-17
44,11,-28
25,9,-46
12,17,-59
9,19,-65
10,21,-86
9,18,-93
-1,6,-102
5,6,-110
44,2,-118
65,7,-123
65,14,-128
66,44,-128
58,58,-128
49,80,-128
19,85,-128
27,99,-128
3,127,-128
8,104,-128
62,127,-37
121,116,-32
31,48,-72
9,25,-76
20,15,-63
46,24,-52
56,27,-39
53,34,-23
49,36,-19
38,50,9
22,77,24
6,92,32
-25,93,31
-58,104,51
-71,93,49
-74,84,47
-58,68,42
-14,51,44
3,47,46
21,40,44
25,36,43
32,29,43
34,30,45
35,27,52
63,42,72
68,49,73
61,45,65
49,34,56
37,17,44
35,14,39
59,3,28
76,6,19
81,2,14
86,-1,5
84,-5,1
66,-4,-4
59,-6,-3
44,-8,-4
31,-4,0
28,0,4
28,4,9
33,3,9
68,7,1
96,18,2
110,19,6
100,13,4
92,13,5
67,9,8
52,4,7
31,-5,3
23,-8,1
15,-7,2
20,-1,1
27,6,-1
63,28,9
90,40,12
127,54,7
127,46,9
103,42,27
63,21,39
49,21,53
55,38,58
60,50,61
77,66,54
85,74,51
89,75,52
82,61,36
74,52,27
72,45,16
71,37,5
54,16,-13
42,5,-28
39,5,-41
21,2,-55
13,8,-58
15,23,-68
17,26,-70
5,25,-73
27,34,-103
44,34,-117
56,26,-128
65,29,-128
55,55,-128
55,80,-128
33,127,-128
30,127,-128
24,127,-128
78,127,-128
72,127,71
75,21,-28
47,-26,-93
12,-13,-108
48,14,-61
63,27,-41
65,42,-27
65,43,-14
52,49,0
40,58,2
-5,80,12
-46,76,10
-19,79,28
-48,82,30
-72,80,35
-58,71,46
-38,69,51
-4,55,58
17,42,57
22,41,56
37,39,58
45,39,60
52,36,63
55,35,59
52,34,56
44,30,52
34,25,45
22,16,31
21,10,26
34,5,27
44,5,22
54,6,17
105,23,15
113,33,9
113,32,0
107,28,-1
78,18,0
51,4,4
39,-2,2
24,-9,0
21,-9,1
27,-4,5
33,0,4
75,6,-5
106,25,-7
107,25,-6
101,29,-6
94,30,-1
61,18,8
44,10,4
24,-5,1
11,-7,0
11,-4,0
23,2,1
43,11,4
77,30,10
117,47,11
122,50,5
107,44,18
83,35,37
41,27,58
48,36,62
68,57,60
86,69,55
86,69,48
73,58,34
69,50,26
62,32,12
57,26,9
42,14,4
42,10,5
42,7,-1
50,10,-9
55,11,-17
54,7,-29
48,8,-30
41,19,-46
34,24,-59
23,22,-58
12,35,-81
12,38,-80
19,44,-91
30,41,-101
43,42,-99
64,52,-113
68,72,-128
72,101,-128
82,127,-128
26,127,-128
14,127,-128
15,127,-112
127,127,34
-16,123,116
88,-17,-87
68,-18,-113
57,8,-79
100,25,-53
109,46,-28
76,60,-23
55,69,-16
19,72,-10
9,77,-11
-29,97,3
-56,110,23
-62,93,37
-68,74,40
-63,62,40
-33,46,41
-19,43,43
13,39,53
19,42,56
42,43,59
43,45,76
36,39,75
42,27,61
44,24,63
50,15,59
58,1,40
60,-3,38
60,3,36
73,8,39
90,14,36
92,12,34
73,4,22
49,-8,12
43,-14,8
39,-21,6
38,-24,7
45,-16,12
47,-11,15
58,6,20
66,2,24
82,13,31
94,29,43
89,28,41
84,21,32
78,18,28
56,14,28
34,5,24
26,-1,19
20,-5,13
22,-4,12
37,-3,9
53,3,9
77,20,11
88,27,14
90,31,11
70,25,11
80,21,10
60,12,15
70,2,9
-9,-6,21
47,6,43
59,-4,44
74,1,17
87,12,17
127,26,2
127,34,0
105,25,5
81,13,6
72,3,2
73,-5,-12
76,-5,-23
77,-3,-26
61,0,-12
57,0,-5
61,2,-8
63,7,-9
58,12,-13
55,11,-12
68,13,-4
79,14,6
69,27,19
58,32,29
54,39,42
34,44,31
35,49,25
2,44,24
3,51,28
4,62,34
13,75,47
20,78,43
46,97,40
48,100,33
101,127,41
127,127,18
127,127,5
127,127,-71
127,127,-61
104,82,-128
127,122,-128
92,80,-93
53,51,-128
46,33,-128
17,31,-101
26,21,-97
26,-8,-80
12,-23,-64
-12,-46,-42
-20,-58,-41
-42,-58,-35
-62,-59,-33
-39,-62,-22
-10,-58,-58
-2,-51,-45
7,-33,-43
9,-18,-15
22,-11,-5
65,0,10
77,-2,15
102,-19,31
99,-29,38
82,-45,42
81,-46,36
69,-40,38
59,-15,33
64,1,32
55,13,34
57,20,29
78,34,34
73,43,32
75,44,35
75,38,29
68,34,26
52,24,21
35,15,15
31,11,13
25,3,13
32,2,14
67,5,13
98,13,16
91,19,-2
94,34,4
86,28,4
48,15,-1
39,9,-2
27,-1,1
21,-1,6
22,2,13
41,7,7
40,15,1
111,19,-10
120,21,-20
118,5,-23
113,7,-3
67,-1,11
45,5,34
44,14,37
63,47,51
71,62,56
83,74,54
93,76,55
110,77,59
99,66,52
86,58,41
72,50,29
69,46,25
70,35,5
62,25,-5
48,7,-16
37,-2,-31
30,-2,-37
32,2,-55
26,2,-61
21,4,-72
-4,-4,-62
-15,-1,-71
37,2,-99
45,2,-102
70,1,-124
65,0,-123
58,16,-128
55,36,-128
44,68,-128
21,114,-128
-1,127,-128
2,127,-128
-5,127,-128
0,127,-128
36,127,-14
-13,127,60
64,79,-18
42,36,-28
50,1,-88
61,13,-84
72,26,-32
65,37,-11
61,42,6
34,62,19
21,76,20
-128,84,33
-54,70,-3
-23,85,55
-98,76,29
-87,69,30
-45,60,43
-31,54,41
-10,47,41
3,43,43
16,39,38
27,36,39
33,33,45
37,31,48
43,30,53
47,26,64
43,19,53
66,25,52
72,18,42
78,15,45
83,9,46
73,3,44
47,-11,35
33,-18,28
28,-15,24
35,-6,24
52,-5,21
104,7,8
111,16,0
99,20,-15
82,16,-18
71,16,-16
52,11,-7
42,8,-3
28,6,4
26,8,7
29,7,6
61,19,1
77,20,-8
96,25,-15
101,25,-14
86,19,-15
73,14,-11
48,2,-1
31,-6,1
27,-6,4
25,-1,5
26,3,8
61,22,15
77,32,20
106,42,26
127,66,32
125,63,37
82,50,47
84,57,47
75,64,36
77,69,34
76,64,19
68,41,9
66,30,5
43,8,-15
30,0,-24
20,-6,-41
19,-3,-47
22,3,-60
9,4,-65
8,7,-76
-11,12,-84
-7,19,-85
30,44,-128
30,42,-128
40,36,-128
67,69,-128
77,103,-128
43,109,-128
48,124,-128
6,112,-128
52,106,-29
0,90,15
67,8,-128
48,24,-128
48,29,-72
86,32,-60
70,37,-42
51,46,-19
47,49,-9
32,62,13
17,68,15
-2,80,16
-16,86,15
-53,86,22
-63,77,46
-56,73,46
-52,57,49
-47,52,50
-21,49,60
-8,49,64
11,46,68
23,37,58
30,29,52
37,14,52
40,9,53
51,7,58
48,11,67
46,11,62
61,7,53
62,4,47
60,-6,33
60,-8,30
63,-11,27
69,-6,27
82,-1,21
80,5,15
69,1,12
50,-8,8
43,-11,6
39,-10,9
40,-8,9
56,5,12
64,9,9
71,10,7
76,10,9
78,10,11
72,4,7
63,-4,4
57,-1,2
65,13,21
54,16,21
44,26,25
45,24,22
49,24,14
77,32,7
86,38,4
89,40,3
81,34,2
56,21,3
44,16,2
36,10,2
29,8,1
32,9,0
45,17,5
51,22,6
89,43,8
101,50,8
104,54,25
105,58,26
100,58,36
67,61,24
67,66,18
71,69,10
71,69,10
70,62,12
76,44,18
64,37,19
73,30,-3
70,24,-17
52,23,-41
46,24,-41
23,30,-34
27,44,-49
32,44,-57
21,42,-66
22,49,-77
27,51,-94
33,49,-97
61,27,-102
76,30,-119
71,42,-127
57,76,-128
48,95,-128
22,127,-128
13,127,-128
33,127,-128
71,127,-127
127,127,-52
21,127,10
80,82,-50
33,27,-48
47,21,-43
67,25,-40
67,29,-36
73,37,-26
61,56,-21
30,75,-15
-17,108,42
-16,92,-17
-55,93,0
-53,89,20
-50,80,40
-46,62,52
-37,55,51
-9,49,67
7,47,73
9,46,72
30,39,66
33,33,59
40,25,57
50,27,59
55,22,61
52,18,65
53,9,52
56,3,37
58,0,28
70,-3,18
74,4,18
84,7,12
78,2,7
67,-3,7
43,-11,8
39,-15,9
34,-15,7
36,-12,8
46,-2,14
63,15,18
73,18,22
92,27,21
101,32,19
98,31,23
93,31,26
78,32,32
48,23,32
39,17,29
28,5,21
22,-1,16
19,-2,11
18,5,7
30,18,11
71,52,8
86,65,3
114,76,3
110,76,8
80,53,27
52,22,24
44,15,24
32,13,25
33,17,25
46,29,32
60,40,38
100,60,41
127,75,45
124,79,43
107,71,30
97,63,26
73,43,9
66,33,1
50,24,-16
26,18,-33
13,18,-44
-1,23,-62
-10,25,-65
-2,36,-76
13,40,-87
-1,37,-93
36,35,-126
51,21,-128
74,7,-128
74,4,-128
62,28,-128
66,49,-128
54,96,-128
1,127,-128
-5,127,-128
25,127,-128
17,127,-128
127,127,-80
51,127,-87
20,109,-115
-19,92,-64
-12,81,-46
22,64,-16
42,54,1
58,36,8
49,31,3
39,24,-4
31,32,-5
9,37,-10
-128,40,27
-79,38,5
-37,55,71
-76,69,72
-82,69,73
-39,63,72
-24,61,73
-2,51,74
4,41,69
16,18,57
34,9,56
34,3,55
43,-4,54
49,-4,56
55,-3,54
58,-5,51
72,0,53
71,-7,39
69,-8,34
73,-1,24
89,1,22
86,12,2
87,12,6
68,28,10
94,36,-22
109,58,7
72,30,-128
-30,-5,-128
-60,1,24
-42,26,82
71,13,41
44,5,14
33,10,20
52,21,10
63,29,25
70,34,41
28,40,54
10,28,55
65,23,22
66,26,22
42,30,43
47,32,41
55,32,35
53,36,32
58,34,26
65,35,23
65,37,23
63,37,16
63,35,12
59,31,5
60,29,1
62,29,0
58,30,-4
57,26,-4
53,21,-3
50,20,-3
56,16,2
49,18,1
45,25,-2
60,20,-1
69,19,-4
67,22,3
64,19,4
65,14,3
57,9,4
54,4,5
49,1,4
49,0,4
50,0,6
52,5,4
71,11,6
80,22,8
85,28,10
73,19,17
59,16,19
37,7,19
35,10,22
35,14,26
30,25,29
16,27,21
55,38,17
49,49,10
94,55,-43
121,45,-54
92,31,-42
59,11,-18
32,20,1
45,5,34
55,15,29
66,29,32
54,39,50
68,49,48
87,76,31
94,83,34
102,88,30
105,85,26
90,69,21
85,59,17
72,44,9
66,33,2
69,27,-2
61,15,-8
54,9,-10
59,6,-12
53,-1,-17
45,-5,-15
30,-6,-23
32,-3,-29
30,-5,-43
26,-3,-46
22,12,-62
13,13,-73
11,14,-80
40,13,-99
47,11,-96
59,20,-98
71,23,-98
73,32,-102
71,34,-99
62,31,-104
46,30,-113
43,36,-126
31,40,-128
28,43,-128
-10,66,-128
-15,105,-128
-1,126,-128
59,127,-102
-9,127,31
81,109,7
67,81,-23
18,46,-33
32,34,-26
32,32,-29
42,29,-19
44,31,-14
35,31,-3
34,32,3
13,42,18
-4,54,22
-20,61,17
-120,94,60
-89,86,80
-23,85,89
-29,74,86
-52,50,79
-16,37,56
2,43,53
30,46,47
41,48,44
52,49,42
43,44,44
35,41,41
32,44,43
34,46,39
50,48,30
56,46,22
62,40,16
55,32,16
49,26,17
37,20,20
30,16,19
28,9,14
28,5,7
30,2,5
58,5,16
63,-1,6
97,2,-10
114,7,1
117,19,9
121,21,10
109,13,6
82,0,-2
66,-3,-3
36,-7,-2
24,-8,-1
11,-7,6
8,-4,9
14,4,4
49,14,-8
61,22,-12
103,35,-26
103,29,-30
114,28,-24
110,25,-14
77,11,20
45,15,41
35,27,41
49,58,42
55,77,40
87,110,38
105,109,28
112,98,26
95,63,10
86,47,2
62,25,-2
51,14,-8
27,6,-29
16,7,-36
19,14,-39
27,22,-55
32,23,-64
20,16,-69
10,14,-73
11,14,-98
28,8,-120
42,2,-125
44,-5,-118
51,6,-121
58,34,-123
63,50,-125
69,85,-128
41,104,-128
34,101,-128
-11,89,-128
-17,86,-128
11,127,-128
19,127,-128
17,127,82
84,57,-46
29,-12,-124
28,12,-128
37,31,-122
61,61,-30
55,58,-7
47,58,12
37,68,11
13,75,1
-12,99,23
-88,108,79
-51,111,71
-40,106,77
-43,90,52
-27,70,44
-16,63,41
3,55,34
16,52,34
37,44,31
41,37,27
49,28,30
52,30,42
57,30,46
77,44,69
95,56,78
69,37,36
62,25,27
48,13,23
42,1,17
42,-3,12
39,-7,8
45,-4,8
62,-5,-4
66,-4,-11
88,18,-18
107,12,-27
106,8,-30
103,11,-14
92,11,-3
63,7,8
36,0,7
26,-2,5
17,-2,4
21,2,6
49,27,15
72,27,5
98,44,-1
104,43,5
91,33,6
56,17,12
42,11,14
22,7,18
16,5,14
21,4,9
30,9,8
51,14,9
80,22,11
84,23,15
102,37,21
105,43,26
112,63,28
85,55,45
73,53,48
71,55,38
64,53,31
58,48,14
57,45,5
54,36,-3
47,24,-5
41,16,-4
68,19,-9
69,16,-13
62,1,-16
58,-1,-26
51,1,-26
45,5,-27
38,9,-40
31,30,-61
36,35,-67
24,38,-59
40,39,-43
52,40,-40
72,42,-38
79,46,-35
91,60,-26
95,70,-29
73,78,-36
48,81,-39
41,84,-31
36,92,-26
34,101,-25
26,115,-26
21,111,-26
16,100,-19
16,77,-13
16,65,-13
22,47,-10
20,39,-8
21,26,-10
23,22,-13
24,17,-21
34,19,-31
41,26,-34
52,43,-43
56,46,-43
56,45,-33
53,44,-28
43,39,-22
36,34,-20
37,31,-19
43,33,-16
47,35,-15
52,35,-13
53,35,-13
55,36,-14
52,35,-15
52,33,-15
54,32,-14
54,33,-13
50,32,-12
49,31,-12
50,31,-13
51,29,-12
52,29,-12
54,29,-13
52,28,-13
50,25,-12
50,25,-13
53,27,-14
54,30,-15
54,32,-15
55,37,-13
56,40,-13
61,39,-11
60,32,-4
59,28,1
65,30,4
70,35,3
75,61,-2
78,86,-11
41,77,-23
1,32,3
2,3,20
8,-45,28
20,-37,26
98,32,-4
127,127,-18
82,75,-31
16,32,4
1,17,9
10,8,15
19,6,16
44,19,-10
67,37,-22
61,50,-5
55,41,-13
44,40,-5
45,41,-3
58,41,-7
79,35,-14
76,27,-12
70,11,-8
69,8,-12
62,7,-12
54,8,-7
53,11,-10
52,22,-14
51,25,-20
58,25,-18
61,20,-5
58,17,-2
55,15,-2
54,15,-4
55,14,-7
63,18,-6
74,22,-3
74,25,0
70,22,-3
68,21,-9
68,24,-8
64,26,-5
59,36,2
57,40,0
57,43,-1
54,42,-1
55,35,5
51,28,8
43,13,16
42,4,15
44,0,11
53,4,3
56,10,3
64,20,5
68,20,4
63,15,6
60,8,9
62,6,9
63,-1,9
62,-5,9
65,-6,8
65,-7,3
63,-7,0
60,-7,-1
60,-6,-1
61,-7,0
61,-7,0
61,-2,3
63,-1,5
62,-4,4
57,-8,4
58,-9,3
60,-11,1
60,-10,3
66,-4,10
70,-2,10
67,-2,9
65,-2,10
67,-4,11
66,3,11
67,7,11
76,7,13
72,6,17
69,9,23
66,7,30
64,5,27
63,5,20
62,5,20
60,4,20
58,4,18
56,5,19
55,4,17
57,4,19
58,8,22
56,7,21
54,5,17
53,3,17
49,-3,20
49,-8,15
49,-11,13
47,-16,12
44,-19,11
45,-22,11
44,-25,10
45,-28,10
42,-33,10
38,-35,11
39,-34,6
44,-30,0
43,-20,-10
40,-5,-24
39,3,-31
33,19,-45
28,25,-49
28,37,-59
29,38,-62
28,41,-67
25,48,-73
25,51,-71
33,63,-89
37,71,-98
34,113,-128
36,127,-128
17,127,-128
5,127,-94
-7,127,-51
-26,127,32
77,120,19
53,35,-31
37,11,-57
21,4,-63
21,8,-40
31,9,-29
42,8,-15
45,6,-12
41,7,-7
46,9,-7
7,12,-1
-5,14,2
-19,21,6
-28,36,21
-20,44,28
10,68,53
30,72,59
54,80,74
61,73,76
61,67,73
56,64,69
53,64,67
46,58,57
43,52,44
40,43,36
37,33,28
35,32,26
37,34,25
38,36,25
39,42,26
36,48,29
32,46,30
29,41,27
31,42,28
26,43,27
25,40,24
34,35,22
44,31,19
53,31,19
66,38,18
71,44,17
79,56,16
74,51,15
54,26,9
44,12,5
44,10,6
44,10,8
43,13,8
47,21,10
50,25,9
67,40,7
80,49,5
81,52,5
79,45,3
76,37,3
59,19,9
48,11,12
45,2,15
44,8,16
47,12,17
52,24,21
62,34,19
63,52,16
61,48,27
55,43,35
45,22,48
52,19,60
64,30,67
71,36,71
96,49,75
115,44,75
108,33,66
101,46,50
90,51,38
61,57,22
50,59,12
38,51,-26
18,36,-41
14,32,-45
8,22,-63
5,14,-74
-16,-6,-83
-20,-13,-89
-26,-38,-121
9,-34,-128
45,-26,-125
75,-8,-128
78,1,-128
69,41,-128
61,70,-128
23,127,-128
-25,127,-128
3,127,-128
16,127,-128
-79,127,-128
59,127,122
115,110,29
65,31,-121
79,46,-106
91,52,-69
75,57,-20
53,62,-11
46,63,-16
25,62,-12
-17,72,1
-41,69,-10
-119,70,16
-128,62,15
-71,67,42
-35,65,58
-39,55,52
-37,48,49
-21,39,45
-9,36,47
12,37,53
20,37,63
36,44,87
42,41,88
44,37,84
40,32,79
42,29,72
43,20,57
38,15,50
32,12,42
22,9,38
20,7,35
22,6,33
22,5,30
38,8,32
50,13,34
101,20,31
117,33,23
112,34,20
97,36,10
85,33,5
45,21,2
31,16,5
10,7,7
0,3,15
-3,5,10
-6,8,-2
-1,13,0
25,27,15
42,35,11
112,60,3
127,51,-8
127,48,-14
127,42,11
104,30,26
69,44,65
63,57,69
60,67,50
53,77,32
52,77,24
42,66,15
42,58,8
42,45,4
45,42,-1
62,47,-14
65,41,-31
59,40,-35
44,40,-35
40,43,-42
41,43,-61
24,43,-72
7,42,-82
8,36,-98
16,32,-102
29,25,-96
35,27,-94
50,49,-94
55,71,-115
46,76,-115
40,94,-114
31,101,-128
-8,91,-128
-18,84,-128
-20,127,-128
47,127,-128
10,127,-128
66,127,-23
52,127,-44
14,84,-38
5,73,-29
18,51,-17
30,42,-13
32,38,-9
35,34,-8
30,33,-6
25,31,2
20,38,11
21,37,3
-21,103,127
-37,54,102
17,55,109
-8,55,103
-35,42,89
-10,34,79
10,32,70
35,33,60
37,25,49
39,8,28
44,-1,25
46,-8,25
55,-2,44
66,1,49
70,5,50
68,6,50
67,6,41
64,4,36
45,-13,18
37,-24,9
35,-26,8
50,-21,9
66,-11,16
91,10,28
92,18,35
82,19,44
75,20,40
70,28,35
57,25,33
50,24,32
33,21,29
26,17,26
25,16,28
43,16,20
55,17,9
69,24,12
74,30,13
84,37,11
88,44,10
74,31,6
48,15,3
41,9,4
27,4,5
28,2,6
35,1,4
42,2,4
68,9,2
94,27,3
99,22,0
95,21,-1
83,17,1
59,-4,-1
52,-11,-3
47,-16,-4
49,-13,-5
58,-6,-5
68,13,-6
69,14,-5
64,15,0
62,16,1
52,11,1
57,21,9
69,33,11
91,52,7
92,61,9
91,65,13
81,56,12
56,35,11
22,-2,29
8,-5,28
13,-22,12
15,-30,3
63,-8,-13
96,13,-20
115,67,-32
113,50,-29
107,39,-20
43,-1,-23
21,-28,-4
44,-25,52
32,-37,0
95,-27,38
110,55,52
127,67,21
90,44,34
59,14,8
43,-20,-44
11,-37,-60
23,-43,-61
46,-38,-56
67,-31,-58
127,11,-62
127,40,-60
122,65,-86
97,56,-81
83,58,-59
55,44,-24
43,36,-15
42,34,-3
34,35,0
56,51,-5
86,65,-40
97,69,-53
94,66,-42
90,63,-22
88,32,23
75,-8,33
8,-43,-34
20,-54,-88
41,-33,-128
98,9,-128
111,48,-128
102,72,-108
94,73,-95
51,75,-51
28,59,-4
17,56,11
-2,37,10
-1,35,2
33,46,1
47,51,-1
51,70,-2
39,106,-6
50,100,14
8,73,61
24,68,48
45,25,34
38,1,7
55,14,12
78,30,5
91,41,2
124,31,-9
116,46,-20
123,40,-12
73,34,24
33,24,33
-23,-4,33
-39,-1,31
-29,17,9
-5,24,6
51,62,-14
127,127,-46
106,120,-49
91,111,-13
93,116,-6
38,42,25
9,7,31
5,-13,35
-11,2,0
-4,8,-21
5,16,-45
9,16,-48
25,34,-55
31,64,-56
80,124,-66
73,127,-92
75,127,-102
46,53,-25
12,20,-11
-7,-32,15
-10,-36,13
7,-14,-2
10,-5,-26
7,-9,-42
4,-38,-64
-4,-52,-74
8,73,-58
48,127,-52
127,127,-49
76,127,-54
36,30,-65
1,-46,-37
-3,-40,-20
11,-15,1
7,-18,5
-19,-16,11
-12,-9,-17
5,-7,-19
67,34,-85
94,87,-95
120,127,-102
82,127,-94
86,114,-75
5,15,-11
-20,-23,10
-13,-43,12
-28,-31,10
4,-32,-7
15,-27,-11
15,-20,-4
38,19,-26
76,94,-45
127,127,-72
112,127,-51
61,125,7
-8,1,26
-14,-51,20
-1,-39,8
1,-23,2
8,-9,-11
13,-4,-13
16,-1,-20
27,36,-26
61,90,-25
83,127,-51
62,127,-60
71,127,-55
45,103,-43
26,-4,-1
-10,-36,19
-7,-26,26
-14,-12,20
-6,-8,17
5,6,13
24,19,14
91,89,21
93,127,50
81,127,58
74,127,70
56,124,71
-5,15,21
-19,-35,0
-29,-38,-21
-14,-13,-10
-4,-5,-6
13,4,12
18,9,23
11,37,72
32,127,89
9,111,106
12,22,78
34,34,90
4,21,65
-12,3,42
-24,-11,8
-2,-6,0
9,-1,4
20,1,12
16,3,23
37,25,73
47,37,96
94,67,91
116,50,68
118,62,56
69,45,27
30,36,19
-16,12,21
-16,17,22
8,34,17
14,22,17
-1,7,14
22,-18,17
53,-19,21
127,41,29
127,121,16
127,109,0
66,65,0
29,41,8
-19,-4,21
-27,-8,20
-1,0,11
8,4,5
21,9,-6
58,19,-22
63,32,-25
61,15,-15
83,30,-13
127,92,-30
127,115,-57
102,72,-63
25,33,-26
-2,21,-8
-1,-4,21
21,-14,21
33,-12,5
-1,-8,2
-11,3,-5
30,26,-40
33,47,-64
72,94,-111
90,118,-128
83,118,-128
51,55,-55
51,23,-20
3,-7,12
-2,-18,18
7,-18,6
6,-15,-11
16,-7,-31
24,13,-40
28,30,-43
31,78,-47
28,94,-57
31,113,-98
48,108,-120
37,46,-76
15,-7,-4
12,-20,13
15,-21,23
15,-19,14
17,-6,-7
23,9,-25
50,69,-53
40,125,-63
35,127,-71
53,107,-75
47,68,-63
50,11,-15
52,-10,7
40,-24,24
24,-12,8
21,-7,-9
11,-3,-38
-2,15,-53
7,127,-80
7,127,-80
21,127,-61
56,90,-39
59,46,-23
47,-10,11
34,-21,18
9,-25,20
6,-22,13
3,-8,-8
12,29,-10
14,60,-9
45,127,-25
37,127,-41
66,127,-54
64,127,-51
55,62,-16
36,-12,5
39,-36,14
39,-47,23
31,-32,10
26,-2,-13
32,61,-22
14,98,-29
-15,127,-54
-31,127,-63
-13,127,-56
-2,120,-45
29,52,-11
38,3,8
38,-14,8
28,-11,9
16,0,7
5,12,14
10,20,17
18,68,20
29,127,2
32,127,-12
55,127,-12
39,127,-13
29,52,1
32,27,12
33,-12,31
31,-32,31
14,-24,16
9,-1,4
12,18,8
21,92,-4
26,127,-19
24,127,-41
17,127,-29
4,116,-11
-12,29,16
-21,-1,22
-21,-13,25
-12,-8,23
-1,-1,12
4,16,12
2,33,13
1,94,-1
5,127,-15
24,127,-1
25,127,15
21,98,28
10,39,32
7,16,38
17,-26,37
29,-28,30
32,5,7
27,47,9
14,101,3
-9,127,-15
-28,127,-20
-16,127,-17
5,114,-7
15,38,15
4,-7,24
-4,-14,23
-8,-10,7
-3,-8,3
1,7,3
3,26,4
1,127,-9
23,127,-25
35,127,-15
40,127,5
39,92,18
23,30,32
24,2,50
25,-32,46
8,-18,15
1,-4,11
5,39,13
9,67,2
-1,127,-33
-10,127,-42
-14,127,-35
0,90,-5
7,51,12
22,0,30
22,-10,31
8,-8,14
3,-3,9
-1,15,6
3,48,5
-1,69,-1
0,127,-20
6,127,-26
25,127,-13
23,117,12
19,56,43
21,8,56
26,-10,54
29,-17,33
25,-11,22
20,3,10
23,20,5
25,127,-33
9,127,-63
-8,127,-68
-22,127,-49
-25,104,-20
1,46,30
18,-1,40
20,-12,35
15,-6,23
15,4,19
20,33,9
22,51,4
23,115,-4
24,127,-10
44,127,-21
38,100,-6
25,73,11
10,24,33
12,4,32
24,-11,24
23,3,15
23,20,11
29,58,-2
37,83,-11
43,121,-33
39,127,-44
40,120,-57
37,72,-21
28,52,3
13,16,34
12,3,32
17,-4,14
22,2,5
39,14,-7
64,44,-15
69,66,-15
80,70,-11
88,72,-12
82,64,-9
67,44,2
42,11,19
37,-2,25
29,-5,21
36,11,46
33,-6,11
48,3,-8
66,10,-21
73,50,-22
107,60,-16
98,45,-15
70,27,-19
78,10,-19
16,9,71
39,20,67
18,-12,7
31,-2,16
39,-4,13
97,11,-10
114,22,-20
105,53,-3
78,34,11
64,24,17
52,-10,15
43,-15,9
69,-7,-13
68,-4,-8
87,-11,4
92,-13,7
107,-9,-1
99,-10,-7
98,-13,-13
86,-24,-12
87,-16,-12
77,-5,-10
89,8,-18
89,13,-17
99,34,-15
103,46,-17
95,56,-6
59,58,15
39,58,25
14,58,24
6,60,23
1,55,10
3,62,16
-9,87,29
-8,95,44
2,90,49
11,81,35
63,101,16
84,127,43
115,127,23
127,127,43
98,127,-67
127,127,-128
-90,74,-39
127,114,-128
127,127,-128
127,127,-128
127,71,-128
127,20,-128
127,-18,-76
113,-23,-96
88,-23,-127
0,-25,-128
-53,-21,-128
-110,-17,-97
-65,-38,-71
-40,-31,-96
1,-36,-57
26,-28,-52
35,-19,-15
42,-18,-4
49,-16,11
53,-13,21
52,-15,66
84,-23,32
90,-19,54
83,-2,71
71,0,60
75,20,44
72,25,46
75,25,34
92,26,33
87,31,32
70,29,23
56,24,21
22,16,18
6,6,14
29,-1,2
104,-15,-65
82,15,-77
88,10,-78
92,14,-70
69,19,-42
62,6,-29
41,0,-29
36,-13,-20
37,-21,-18
29,-25,-3
33,-23,-1
24,-11,8
28,2,14
40,12,18
115,30,20
127,30,27
127,47,30
127,35,35
103,35,41
66,27,29
45,18,22
18,0,10
10,-6,5
2,-10,0
-1,-11,0
-6,-12,-1
-3,-8,-6
13,-2,-7
86,39,9
107,59,-5
127,86,-16
127,77,-16
120,53,-8
62,13,-4
41,-2,2
6,-15,20
-14,-16,19
2,0,14
50,7,13
86,19,11
127,36,20
124,18,13
127,9,-3
120,12,-1
87,9,12
60,2,38
48,6,50
52,28,71
67,48,80
79,72,89
81,80,85
80,73,81
93,71,77
86,63,71
70,46,47
63,37,28
52,21,-5
47,16,-12
28,12,-28
8,15,-40
8,22,-50
16,35,-64
24,37,-70
18,24,-87
10,15,-101
6,-10,-128
52,-24,-128
64,-13,-128
64,7,-128
68,43,-128
-23,53,-128
-128,62,-128
20,127,-128
127,127,-128
103,127,-128
127,127,-79
69,127,26
82,127,-128
125,75,-128
121,127,-128
127,127,-6
127,127,-10
22,127,12
-20,127,2
-67,127,-6
-101,127,2
-114,127,28
-78,115,34
-45,100,34
-16,79,47
-12,63,43
4,54,64
29,49,52
49,52,64
57,42,80
61,37,81
68,25,78
71,19,77
83,14,65
67,-7,52
57,-13,48
39,-14,45
38,-20,42
32,-22,36
34,-21,32
57,-5,41
58,0,44
72,-2,41
93,-1,23
92,5,15
89,16,3
81,15,0
60,17,3
36,11,5
30,5,8
31,6,18
39,15,24
43,27,27
56,30,29
102,39,19
97,28,14
93,24,15
67,15,17
53,11,19
31,-2,12
22,-8,8
7,-4,15
4,-6,7
18,0,6
90,11,1
121,33,7
127,45,15
121,53,19
110,41,15
66,21,4
49,13,6
16,5,14
8,2,13
-2,-5,9
6,-1,2
28,4,1
106,28,1
120,51,1
127,52,-5
127,50,-2
84,27,3
32,-1,-2
17,-10,-4
-1,-11,-3
-5,-9,-4
0,-1,1
15,7,12
65,37,35
107,46,49
122,42,65
116,34,93
118,25,98
109,-1,92
106,-6,92
94,-1,82
106,25,65
119,44,53
102,50,27
89,46,18
84,46,20
80,46,19
58,46,19
51,50,12
53,46,1
47,34,-10
46,26,-15
29,15,-27
24,16,-29
14,7,-43
17,3,-77
21,0,-88
8,-14,-99
5,-21,-106
52,-20,-128
71,-5,-128
85,8,-128
115,45,-128
87,43,-128
88,86,-128
54,126,-128
-85,127,-128
-34,127,-128
127,127,-128
96,127,-128
127,127,-128
7,127,42
70,127,-95
127,62,-128
127,127,13
127,127,12
63,127,-17
-8,127,-22
-73,127,-28
-90,127,-44
-126,109,-19
-97,78,18
-67,95,39
-7,109,65
0,94,74
11,60,65
36,58,42
31,54,26
63,79,25
103,90,39
127,67,67
121,47,63
119,24,58
118,24,57
103,-1,53
89,-22,53
73,-29,54
31,-38,50
19,-37,44
26,-13,52
41,-23,45
77,-13,35
101,3,17
110,-3,14
89,13,-5
75,19,-6
75,27,3
70,29,10
45,17,14
19,12,13
11,11,15
1,25,15
8,39,14
69,41,28
112,50,12
127,61,24
115,38,23
114,33,31
88,14,10
67,5,4
19,-9,-3
-4,-20,-9
-9,-18,-9
-10,-9,-3
-9,-9,-4
3,-4,-7
14,5,-1
71,34,18
121,73,33
127,88,29
127,81,39
117,55,36
39,-2,29
16,-16,27
6,-40,20
28,-31,16
40,-28,13
91,-4,26
105,21,20
110,13,21
99,14,27
69,15,49
50,18,60
57,26,62
56,41,69
58,50,76
84,80,94
102,88,95
97,79,85
109,71,73
106,55,61
82,34,31
78,28,12
63,18,-16
52,15,-26
28,20,-37
23,32,-62
28,29,-74
29,20,-90
29,11,-93
36,1,-80
39,-1,-78
60,-2,-70
89,-4,-58
83,-7,-53
94,14,-52
101,23,-53
70,36,-53
85,36,-63
53,66,-78
49,127,-128
38,127,-128
-41,127,-128
-90,127,-128
67,127,-128
127,127,-128
117,127,-128
81,127,58
10,127,105
-26,0,-128
46,18,-128
127,90,-88
127,125,-17
127,127,33
50,127,33
-5,127,21
-69,127,-4
-100,127,-1
-106,120,5
-68,84,8
-52,67,16
-23,44,26
-10,36,29
8,29,42
14,27,48
36,19,62
62,13,79
77,5,85
73,-13,79
66,-18,81
59,-19,78
51,-21,60
35,-27,39
24,-31,24
28,-32,20
43,-35,12
63,-34,25
105,-5,35
113,0,34
113,0,13
93,1,6
87,2,10
58,8,14
44,9,14
27,11,18
26,4,13
12,1,4
19,9,9
21,21,12
62,27,21
100,28,19
127,38,24
127,41,31
124,22,28
93,13,27
70,12,29
36,12,28
28,12,22
19,4,15
7,-4,3
1,-3,1
-7,-4,-2
-5,-3,-4
24,4,-5
55,11,-4
113,48,11
127,52,20
127,66,19
123,56,35
82,33,35
23,-6,42
15,-7,44
25,12,53
61,49,87
96,70,100
124,82,102
119,73,92
108,58,78
95,54,75
82,60,51
78,66,25
81,71,21
81,77,15
76,73,15
62,58,6
53,48,4
43,38,-9
49,40,-39
59,37,-60
50,10,-100
37,-10,-102
43,-13,-94
54,-23,-84
56,-21,-61
70,11,-106
66,14,-116
34,55,-128
44,85,-128
12,116,-128
-24,127,-128
-46,127,-128
127,127,-128
127,127,-128
-56,127,-128
89,127,33
93,127,81
75,51,-70
79,39,-128
127,109,-49
127,127,-18
126,127,40
63,127,41
-21,127,-2
-50,127,-20
-70,118,-14
-74,100,9
-64,88,17
-43,61,24
-25,54,33
-8,54,53
15,45,45
24,38,46
42,26,60
45,17,67
53,-5,67
65,-16,68
98,-9,74
109,-6,66
92,-13,49
64,-17,32
59,-10,31
49,-4,40
32,2,39
31,9,18
62,27,20
69,33,21
85,37,32
87,36,27
86,40,29
85,34,27
63,22,21
39,14,20
29,14,20
16,6,18
15,2,18
18,-6,15
39,-10,13
127,-13,16
127,14,16
127,15,16
118,7,13
88,8,7
45,5,1
26,5,-2
-1,4,-1
-11,7,1
-9,9,0
-9,7,-7
-5,7,-9
-6,20,3
22,39,11
68,61,25
127,99,62
127,93,67
127,60,57
127,40,60
89,4,66
45,-51,49
38,-71,37
33,-90,18
36,-83,9
37,-61,-5
83,-59,-14
125,-23,-17
127,17,-11
125,31,13
107,62,65
91,59,90
67,57,127
74,64,127
77,89,114
107,104,69
115,106,49
96,78,21
93,65,10
90,52,-12
72,43,-19
42,30,-31
63,39,-49
69,46,-56
47,26,-65
46,7,-59
38,2,-38
38,17,-39
88,34,6
86,34,41
84,23,49
77,10,47
64,22,42
62,15,26
61,11,9
41,5,-33
42,26,-59
28,31,-69
22,76,-114
13,112,-128
-7,127,-128
-10,127,-128
127,127,-128
127,127,-125
-24,127,-128
101,127,85
63,127,30
76,47,-128
57,86,-44
78,62,-4
127,44,9
107,55,4
67,46,-11
61,47,-35
5,56,-52
-58,61,-42
-66,59,-38
-69,58,-10
-88,57,25
-36,64,47
-29,61,51
-21,45,63
-21,33,65
-12,27,64
2,11,62
9,5,58
10,-10,55
8,-19,59
29,-20,69
69,5,77
85,16,73
95,22,64
105,25,68
96,30,66
93,28,67
86,31,63
60,44,58
46,42,51
23,27,25
14,17,16
-1,0,5
-4,-5,-1
-8,-8,-4
-6,-19,0
2,-24,-1
34,-30,5
65,-22,9
89,-12,14
127,10,37
127,28,43
127,19,28
111,26,25
74,22,26
72,24,26
67,24,23
82,32,24
96,50,40
71,48,37
46,34,27
21,12,17
11,5,14
0,-7,6
-2,-12,4
3,-15,2
21,-14,-2
41,-18,0
77,-4,4
75,8,3
110,7,-9
110,23,-21
109,15,-13
72,8,-1
54,0,1
45,3,10
48,12,13
85,35,24
119,59,21
127,59,17
118,59,16
85,51,16
44,27,14
33,17,11
13,7,8
0,3,6
-3,2,6
-2,-3,3
6,-4,-2
52,0,-9
85,13,-12
114,32,-3
127,28,-16
127,37,-19
101,27,-8
72,17,0
21,4,-1
5,1,-1
-13,4,7
-9,6,9
7,9,5
64,16,7
86,25,18
100,25,26
119,17,23
127,11,24
96,4,26
73,-13,24
41,-33,24
36,-36,22
35,-39,17
39,-31,12
56,-19,9
81,2,17
86,7,18
77,7,23
70,10,25
75,21,47
111,42,101
122,49,112
127,65,113
120,64,109
89,57,73
75,57,57
65,55,38
53,52,16
49,48,5
38,39,-5
38,37,-7
45,27,-9
40,17,-10
40,4,-13
48,-4,-25
46,-5,-31
40,-9,-38
36,-10,-48
34,-2,-73
35,6,-82
48,3,-78
55,8,-51
51,2,-62
83,13,-93
59,27,-99
55,51,-128
63,79,-128
19,127,-128
-68,127,-128
51,127,-128
127,127,-128
127,127,-128
106,127,82
127,127,59
-10,3,-128
33,-2,-128
59,45,-128
127,97,-19
127,105,22
105,127,30
32,127,5
0,127,-7
-45,127,-21
-91,121,-25
-96,81,-21
-92,70,5
-37,85,54
-15,88,83
7,71,87
36,40,96
56,38,109
75,25,118
64,14,106
41,5,80
28,-19,45
30,-22,35
31,-22,24
34,-29,19
41,-30,18
50,-27,19
103,-14,37
127,26,33
116,14,25
86,4,13
70,3,11
41,-3,16
35,-7,15
32,-3,19
51,2,18
65,8,12
96,18,21
96,24,27
92,24,23
84,25,23
49,18,26
23,5,25
17,1,23
9,-8,15
8,-11,11
32,-4,4
59,-2,-1
110,26,18
126,46,15
127,52,17
94,39,15
66,28,11
28,4,12
21,-1,14
35,-12,15
37,-21,-6
-11,-42,-15
14,-1,5
55,20,45
83,10,27
127,27,24
127,49,20
127,33,17
98,21,16
40,-10,7
26,-11,4
20,-16,-2
34,-20,-13
52,-29,-20
100,-29,-11
120,-20,-18
127,1,-12
127,4,-18
127,13,-10
121,27,-10
115,29,-13
84,28,-26
73,30,-27
63,39,-25
59,41,-20
60,51,0
53,52,16
46,52,22
27,39,25
7,35,31
-12,27,33
-6,30,28
-2,36,37
-7,46,26
-15,63,30
-10,96,-19
13,127,-33
99,127,-8
115,127,48
127,127,-58
127,127,-128
127,127,-128
12,127,-128
41,106,-128
127,127,-128
127,127,-128
127,58,-128
69,8,-115
57,7,-96
19,0,-90
1,-11,-91
-46,-28,-87
-86,-35,-43
-75,-37,-42
-21,-40,-64
-4,-42,-59
8,-50,-30
12,-48,-18
25,-27,-1
31,-16,12
24,-5,40
52,-19,68
85,-17,75
119,-3,41
127,12,41
78,25,97
77,22,65
58,29,70
45,20,64
42,19,45
28,10,21
14,1,9
37,3,7
69,6,-43
102,34,-75
109,17,-74
104,24,-61
87,18,-33
69,18,-14
31,-5,-5
12,-11,1
7,-16,0
12,-16,6
29,-9,11
114,1,24
127,28,42
127,52,35
118,38,26
97,32,23
50,19,22
34,11,19
13,-5,13
7,-12,8
-10,-17,-5
3,-10,-15
-12,-7,-6
13,15,5
24,28,16
80,61,50
115,75,47
127,71,29
127,62,42
127,61,43
103,46,52
76,62,69
79,98,46
83,98,22
79,104,26
100,121,24
100,120,28
89,127,22
87,125,11
82,87,-9
66,67,-26
66,70,-29
81,82,-55
91,83,-76
36,60,-89
1,46,-110
20,27,-128
35,2,-128
50,13,-128
89,49,-128
85,89,-128
-22,127,-128
14,127,-128
127,127,-128
103,127,-128
-1,127,-100
83,127,127
127,127,11
66,-54,-128
38,13,-128
127,107,-35
127,114,29
111,127,47
64,127,30
36,127,16
-29,127,21
-45,127,-5
-54,107,-18
-64,61,-9
-62,50,-4
-47,36,5
-36,36,20
-14,32,52
1,31,61
6,31,62
13,24,70
19,18,69
36,3,69
48,2,73
68,1,80
72,0,68
72,-10,64
79,0,68
78,3,65
79,-2,54
77,-4,49
63,-6,38
55,-10,29
44,-12,19
31,-8,18
30,-8,18
38,-1,21
44,4,28
50,8,43
94,14,58
116,31,68
104,30,63
101,35,58
89,45,45
66,38,48
31,21,38
24,8,18
22,-2,24
15,-6,9
9,-7,2
-2,-3,-2
-4,1,-1
8,5,-4
73,23,-13
122,36,-6
127,55,8
127,55,3
127,56,-9
127,25,-9
50,-18,-1
4,-28,13
-3,-24,12
-5,-16,7
-1,-9,5
40,-4,8
78,1,4
121,24,-9
118,30,-1
111,33,2
75,5,0
56,-19,-2
17,-43,11
5,-30,14
3,-24,2
34,-32,2
64,-31,4
118,-26,22
127,-11,38
127,28,60
120,45,87
109,46,95
102,65,104
101,67,100
103,77,113
98,78,123
110,83,103
101,83,84
89,90,39
102,115,7
97,117,-6
74,99,-26
62,82,-37
35,50,-59
25,57,-87
28,63,-96
12,62,-107
4,57,-121
29,-2,-128
54,-28,-128
86,-66,-128
70,-52,-128
55,-21,-128
-9,64,-128
-21,127,-128
50,127,-128
122,127,-128
126,127,-128
127,127,-128
127,127,-11
41,127,-128
-99,127,-128
127,127,-128
127,127,-53
127,127,73
63,127,32
-22,127,35
-43,127,-35
-73,127,-53
-106,127,-19
-89,96,-6
-42,56,12
-3,26,30
8,29,44
14,52,54
26,46,60
53,42,72
66,38,76
87,25,77
109,1,79
116,2,76
103,-31,52
94,-41,37
62,-35,19
43,-35,13
32,-23,14
42,-11,28
57,0,39
82,29,59
88,39,57
88,51,63
62,33,36
66,30,32
55,18,22
45,15,22
17,9,22
6,-2,19
10,-6,17
68,-12,16
109,-7,14
127,22,12
127,38,9
127,16,0
93,12,-4
32,2,-5
-1,-12,-3
-10,-13,0
-19,-9,1
-16,-10,1
-3,-3,3
1,-5,0
37,-16,2
119,-4,26
127,37,28
127,60,34
127,64,19
108,27,0
31,15,20
12,11,27
-7,-13,-4
18,-12,-7
19,-9,-8
34,-12,-8
71,-7,-4
97,7,0
91,32,4
104,20,3
114,24,-8
88,6,-6
68,-8,3
41,-30,9
43,-29,-6
41,-12,-6
91,11,17
100,20,18
122,13,10
118,9,12
112,-15,12
110,-33,15
106,-37,11
67,-18,-4
59,-7,-9
71,9,-21
73,14,-24
74,23,-35
89,47,-37
82,55,-29
64,54,-9
52,48,-2
18,42,22
14,46,33
-4,72,52
-11,74,50
-25,93,58
-31,105,69
-12,98,64
24,127,62
91,127,70
127,127,127
40,127,-128
127,127,-128
127,127,-128
65,127,-35
127,127,-128
127,127,-128
127,127,-128
127,-16,-128
127,-49,-94
103,-70,-58
80,-73,-65
46,-65,-121
-1,-53,-113
-67,-44,-106
-74,-34,-75
-53,-30,-60
-8,-24,-43
2,-19,-33
4,-19,-3
0,-28,15
23,-30,30
52,-31,42
55,-32,48
50,-23,54
54,-23,47
71,-30,23
74,-27,22
83,-6,39
75,-2,15
91,12,13
106,35,0
117,49,-2
99,23,-26
88,19,-30
61,10,-16
33,4,14
40,5,16
32,25,10
94,20,-5
79,21,-123
9,27,-30
-36,27,55
80,36,78
101,28,64
51,13,26
41,7,12
63,20,39
43,5,62
28,9,60
18,-12,-3
35,-15,-17
54,23,-9
53,38,-7
95,56,-8
107,43,-39
59,46,-45
73,32,-16
73,22,30
52,18,17
37,20,24
52,38,34
76,59,36
68,58,23
75,46,32
97,30,35
62,9,30
48,1,24
46,-10,11
53,-14,6
42,-7,-4
16,-1,33
38,-3,8
47,-10,1
66,-8,2
95,-1,13
79,-18,33
60,-21,35
49,-27,40
45,-25,37
43,-18,27
45,-12,24
41,-8,20
46,-11,20
48,-14,22
45,-31,30
45,-41,36
43,-49,44
45,-47,40
43,-47,33
38,-46,22
38,-42,20
38,-38,21
37,-35,23
39,-35,32
38,-31,33
38,-27,31
36,-12,19
30,-11,18
29,-22,17
35,-32,17
46,-46,32
50,-51,39
63,-51,39
48,-45,25
53,-42,6
49,-34,1
56,-33,13
72,-39,29
66,-40,42
55,-27,49
30,-18,43
39,-21,36
63,-15,21
69,-13,26
68,-10,25
64,-9,22
58,-11,22
56,-20,20
57,-27,18
59,-39,20
61,-44,21
58,-56,27
33,-55,46
23,-51,45
27,-40,39
31,-30,29
54,-4,6
60,13,-8
49,29,-30
53,31,-40
36,29,-45
26,13,-53
23,2,-57
24,12,-60
21,15,-61
13,16,-78
16,47,-115
13,62,-127
11,127,-128
12,127,-128
27,127,-128
56,127,-128
44,127,-128
-123,127,95
59,127,21
36,90,-44
32,52,-78
43,45,-73
50,34,-46
55,28,-40
70,22,-31
67,25,-32
46,27,-27
36,28,-24
2,35,-18
-31,58,12
-93,54,4
-119,62,3
-81,59,40
-22,44,54
-42,44,67
-17,40,67
20,27,58
37,17,57
57,9,63
60,3,64
76,5,100
70,14,101
49,10,84
35,4,52
40,5,45
28,6,29
34,4,26
45,1,23
50,1,17
66,8,23
73,8,24
72,11,24
52,13,23
45,13,24
32,-5,16
28,-13,5
60,-18,2
60,-7,7
64,-4,8
88,2,13
100,6,15
110,14,15
98,7,12
93,5,12
74,0,12
63,-7,9
45,-16,4
37,-24,3
32,-23,0
29,-23,-1
18,-14,5
20,-4,13
43,3,21
114,29,37
127,47,43
127,42,32
109,25,29
84,19,26
47,13,25
32,10,24
20,-2,20
14,-6,15
2,-15,6
-6,-13,3
-2,-14,0
27,-16,-7
58,-11,5
79,-21,-28
44,-46,-40
116,71,59
127,18,60
109,10,13
87,-15,7
73,-23,6
62,-21,6
62,-15,2
74,-7,11
103,4,17
123,13,20
116,3,1
103,-4,-6
72,-2,-12
53,-11,-19
65,-36,-32
94,-22,-67
90,-2,-78
113,37,-71
118,52,-59
127,74,-33
127,79,-16
91,91,10
50,84,31
32,82,50
-5,81,43
-15,89,57
-31,91,66
-16,85,69
-34,82,106
86,127,127
90,127,127
86,127,83
127,127,-4
127,127,-128
9,127,-128
127,127,-128
116,127,-128
127,127,-128
127,122,-128
127,52,-128
127,-8,-122
127,-28,-126
103,-25,-125
55,-20,-128
14,-27,-128
-107,-42,-119
-115,-47,-94
-81,-59,-60
-7,-42,-56
4,-30,-52
15,-15,-23
21,-13,-16
32,-16,-4
34,-19,13
52,-35,40
81,-36,49
78,-36,76
75,-23,48
85,-10,44
81,14,60
63,22,63
56,24,55
52,22,57
46,21,51
56,16,38
63,14,33
68,13,25
74,11,19
90,15,14
90,20,19
79,18,15
58,16,21
47,5,21
32,-18,13
32,-24,12
40,-19,15
70,-4,18
84,9,23
86,23,27
86,21,32
57,12,27
43,9,24
22,7,21
16,7,20
25,19,25
65,36,24
79,48,24
96,52,33
87,45,22
85,39,23
70,32,27
61,29,31
39,21,31
31,15,30
20,1,26
14,-4,21
12,-6,17
22,-8,9
45,-7,9
120,18,24
127,60,29
127,52,23
120,39,11
89,26,7
40,5,0
23,-7,0
7,-17,-1
6,-21,-2
4,-19,3
8,-9,7
-5,-8,0
-4,-7,-5
28,-2,6
87,37,77
93,26,45
127,36,31
127,24,19
127,11,25
111,-31,18
95,-55,6
84,-49,-14
83,-42,-25
81,-29,-24
117,-28,-36
117,-24,-50
127,-15,-78
127,-1,-94
127,48,-75
127,72,-64
117,110,-72
42,127,-42
13,127,-24
-25,127,-17
-43,127,-10
-30,127,93
-30,127,127
127,127,89
127,127,-128
127,127,-128
127,57,-128
76,127,-128
117,65,-128
109,71,-128
127,68,-128
99,29,-128
61,19,-128
8,-9,-113
-5,-32,-97
-27,-71,-68
-14,-81,-49
-13,-80,-44
-37,-69,-43
-35,-66,-51
-34,-72,-61
-45,-67,-86
2,-51,-58
38,-21,-36
52,-9,-30
73,6,-2
69,11,12
60,8,34
56,4,35
59,8,44
121,19,29
106,20,12
106,35,15
105,45,30
104,52,42
103,50,49
88,39,57
64,24,46
48,15,35
25,-4,17
28,-7,12
38,-12,3
43,-9,-10
85,-4,-34
87,4,-50
92,4,-45
86,0,-45
75,-4,-42
63,-4,-17
53,-8,-10
38,-11,1
21,-28,-2
15,-30,-2
19,-22,3
30,-15,6
49,5,14
91,15,25
117,30,30
127,47,22
127,51,28
116,41,31
107,36,32
71,21,28
52,15,21
23,-1,14
10,-16,9
9,-18,7
-3,-17,7
-6,-16,4
8,-15,7
68,-3,14
91,10,13
98,35,8
61,39,-1
127,75,59
127,72,80
75,36,28
26,13,40
14,-1,44
21,-14,27
30,-22,19
61,-31,19
60,-25,16
89,-29,0
116,21,9
107,7,12
127,25,-5
127,32,15
119,-7,8
113,-20,-3
94,-17,5
79,-23,1
60,-24,-2
71,-6,-22
63,8,-29
67,30,-28
63,36,-20
60,37,1
53,33,30
50,27,42
33,22,38
45,12,43
44,11,56
45,13,59
42,33,49
24,39,47
24,44,47
12,40,38
10,33,37
7,29,39
3,37,36
-4,45,36
-8,62,6
-8,72,-9
34,104,-27
54,112,-16
57,127,40
11,127,73
127,127,-57
127,127,-128
127,127,-128
55,127,-68
127,127,-128
127,127,-127
127,70,-128
127,3,-121
105,-42,-70
83,-51,-50
50,-61,-58
8,-53,-53
-60,-37,-31
-122,-58,-30
-58,-28,-65
16,-18,-40
37,-4,-24
57,15,-2
67,21,14
66,24,31
63,20,34
70,15,38
94,6,48
101,5,58
83,-3,38
85,0,34
87,4,39
96,17,40
90,18,44
60,17,45
46,15,39
27,8,30
26,1,15
31,1,9
64,2,-4
87,5,-9
121,32,-20
102,29,-19
67,17,-5
60,12,-2
33,-3,-8
25,-7,-3
31,-8,-1
42,2,8
45,8,4
74,22,-5
89,31,-1
95,33,9
98,31,17
96,26,18
59,16,23
40,8,25
25,-4,26
9,-6,21
9,-3,18
33,-8,6
65,-5,1
120,18,-13
125,40,-21
127,28,-32
107,30,-25
74,22,-17
29,6,-4
19,1,4
-13,-6,2
-13,-3,-2
-7,-11,4
0,-2,2
12,4,-6
46,32,2
85,57,13
127,85,5
127,96,13
127,77,37
127,61,62
123,41,66
92,39,66
86,47,66
97,75,54
122,105,31
122,113,31
127,127,17
111,123,11
93,111,2
88,97,-1
58,60,-14
46,44,-18
25,23,-36
32,29,-60
45,32,-78
44,24,-116
34,9,-126
17,-25,-128
79,-22,-128
89,-19,-128
4,-48,-128
-84,-25,-128
-3,127,-128
127,127,-128
79,127,-128
-30,127,-128
127,127,-128
127,127,-105
36,127,-128
-54,105,-128
52,93,-128
100,127,-13
127,119,1
116,126,7
43,127,0
5,127,-16
-61,127,-9
-89,124,-5
-128,108,-16
-95,96,9
-71,88,31
-20,94,60
5,89,61
35,68,52
41,58,54
65,47,61
61,33,57
60,35,56
78,32,55
92,30,55
103,25,49
105,22,48
88,19,46
67,4,36
54,-8,34
42,-23,39
39,-25,38
30,-28,28
29,-27,27
47,-12,34
84,-5,27
109,3,27
117,23,22
105,23,15
77,16,7
60,13,5
37,11,11
21,10,16
18,6,16
20,5,20
12,7,20
20,20,20
44,29,25
122,36,-2
127,68,14
127,46,14
119,40,8
110,32,10
79,22,11
40,10,9
25,-2,10
0,-13,10
-2,-12,7
-7,-14,3
-8,-13,3
-4,-7,-1
13,-2,-6
44,6,-9
116,52,-14
127,58,-15
127,71,-18
127,66,-7
98,39,-5
37,1,-6
16,-12,-1
0,-18,1
-3,-16,-1
3,-6,4
11,4,10
41,34,15
85,54,8
95,56,9
103,74,19
98,66,20
92,51,20
87,47,27
81,31,30
69,6,24
64,4,25
62,4,11
65,2,-1
81,7,-13
90,16,-8
73,4,-6
48,-1,41
32,5,76
43,25,91
63,36,83
122,92,91
127,103,70
127,81,13
85,52,1
62,56,-11
10,80,-29
2,77,-32
6,47,-52
3,43,-54
8,48,-63
12,10,-93
8,-18,-107
64,8,-128
99,-1,-128
46,0,-128
-95,83,-128
-14,127,-128
127,127,-128
127,127,-128
-128,127,-49
-128,127,32
127,11,-128
127,14,-111
127,56,-128
127,127,-128
111,127,-34
54,127,-8
17,127,-14
-45,127,15
-73,127,29
-79,127,38
-76,125,36
-75,127,33
-41,127,30
-21,127,24
6,127,18
14,122,21
14,116,18
26,95,7
30,91,0
33,89,-9
33,82,-11
31,80,-13
44,84,-9
55,78,-1
71,56,4
69,46,2
48,33,-5
47,47,-3
51,92,-6
45,89,-2
40,76,3
34,54,9
35,47,8
33,34,3
28,34,2
27,31,5
18,42,5
18,51,5
23,67,5
23,67,-3
42,76,-10
54,73,-7
67,58,-2
77,62,19
82,64,20
84,60,28
66,49,25
29,41,9
19,43,7
14,42,6
18,43,14
27,44,18
37,41,19
41,41,16
43,46,15
41,47,12
36,48,9
34,47,5
36,46,7
41,47,7
38,49,9
43,46,12
37,42,12
45,42,15
44,35,15
47,31,15
49,16,15
63,16,18
82,25,20
71,16,20
65,13,21
58,9,17
59,8,18
62,3,28
53,-2,19
60,-1,3
62,0,0
61,3,0
69,11,0
69,15,0
77,24,1
78,31,2
72,41,7
55,46,14
55,49,15
64,46,0
73,46,-4
73,50,-11
62,51,-12
49,46,-8
46,37,-8
45,33,-6
39,24,-3
36,20,-1
38,15,1
40,13,3
44,11,3
53,12,3
56,12,3
62,13,7
65,17,7
72,28,8
73,29,11
76,23,4
69,14,-2
72,16,-5
75,21,-8
73,21,-8
59,19,-5
40,17,3
36,16,5
34,16,10
34,18,10
39,27,16
39,31,14
54,27,6
67,30,0
70,32,0
76,33,-2
70,31,-1
70,33,-1
77,47,-3
76,47,-6
73,38,-8
69,32,-7
50,18,-5
43,9,-1
39,1,7
35,-4,6
23,-9,8
22,-7,4
24,-4,1
38,13,-17
59,35,-34
79,64,-65
74,55,-73
53,64,-66
38,53,-44
21,43,-36
6,36,-20
2,38,-19
-6,45,-19
-8,55,-24
-5,79,-36
20,90,-78
26,77,-84
36,47,-69
35,27,-59
35,-3,-36
27,-9,-14
22,-7,-6
18,2,-1
17,14,-3
21,67,-29
28,105,-57
20,107,-77
20,85,-65
19,67,-52
17,38,-31
16,29,-24
17,30,-15
15,35,-16
13,54,-27
14,70,-37
15,69,-39
24,77,-40
32,80,-48
43,48,-44
42,32,-33
32,11,-8
24,7,6
21,12,7
15,40,1
13,70,-6
4,112,-29
-7,113,-40
-1,111,-41
6,83,-29
9,65,-25
11,40,-16
13,38,-14
11,37,-12
8,45,-12
1,69,-9
4,85,-16
13,80,-22
42,77,-14
49,71,-6
36,52,8
36,43,11
35,26,11
32,23,7
32,27,6
32,73,-3
24,104,-19
15,105,-36
2,86,-15
-4,73,-3
6,53,8
14,42,8
20,34,8
17,32,7
11,56,12
12,78,16
13,93,11
28,93,5
41,91,5
53,56,13
54,34,22
47,2,28
42,-4,24
43,2,21
37,36,6
42,86,1
5,127,-18
-23,127,-17
-40,112,-3
-13,79,3
0,62,4
12,41,7
15,37,7
8,51,6
4,60,3
1,83,-6
4,92,-13
7,92,-13
19,90,-5
26,83,3
30,58,23
31,45,28
19,21,42
18,14,39
34,20,47
31,30,29
30,36,16
27,67,-2
28,80,-10
26,88,-20
25,84,-22
25,75,-18
23,57,-6
21,51,-2
9,48,-2
5,47,-3
2,62,-12
2,78,-30
4,83,-32
4,88,-19
9,89,-10
26,88,5
34,82,8
39,61,15
42,37,22
38,28,28
29,23,29
29,32,23
34,65,4
32,74,-9
15,87,-7
12,112,-12
10,108,-16
6,70,-3
6,53,5
12,33,9
18,31,9
19,34,6
22,67,-3
22,98,-12
15,116,-26
13,104,-25
-1,95,-17
-11,70,-10
-10,56,-5
-6,55,4
-2,61,7
11,70,6
18,68,6
33,59,10
34,39,22
34,29,26
38,16,28
40,11,27
37,8,23
38,7,19
40,19,8
51,56,-6
50,80,-14
46,85,-25
34,93,-29
18,86,-29
11,76,-23
3,58,-9
4,48,1
8,45,4
7,45,3
6,51,1
-1,75,-10
-4,88,-18
5,90,-18
8,88,-2
7,88,5
8,73,14
11,63,18
19,44,22
24,37,23
28,22,22
22,18,20
26,23,17
22,39,13
25,54,5
29,88,-3
19,95,-8
16,103,-11
2,96,-20
-2,85,-19
-7,66,-6
-9,57,-3
-8,49,0
-7,47,2
-6,54,3
-9,74,-5
-5,87,-11
17,94,-16
29,92,-7
31,93,10
26,65,16
38,52,17
41,32,10
47,22,8
43,18,-3
34,24,-5
22,32,20
60,47,54
71,50,40
17,20,34
35,8,38
91,-17,7
120,-19,4
107,-19,-9
82,-18,-33
69,-13,-32
39,-1,-31
43,4,-24
37,11,-16
38,8,-20
35,-2,-15
36,-23,-13
30,-31,-12
35,-42,-4
53,-46,-21
51,-53,-28
49,-52,-12
46,-49,-12
35,-44,-18
29,-39,-9
25,-34,-8
24,-32,-14
19,-37,-16
20,-40,-20
28,-43,-25
34,-64,-31
36,-68,-35
33,-66,-39
38,-65,-34
48,-62,-23
43,-51,-12
36,-42,-15
28,-25,-22
26,-22,-22
21,-21,-29
24,-21,-27
30,-32,-29
44,-47,-32
42,-50,-37
49,-53,-40
55,-58,-44
55,-64,-24
42,-56,-19
35,-48,-21
16,-36,-6
3,-33,2
-12,-31,-29
-7,-26,-26
8,-30,-14
15,-48,-21
21,-51,-45
24,-52,-69
37,-58,-62
48,-62,-48
48,-61,-48
38,-48,-54
38,-43,-57
46,-46,-43
40,-46,-44
34,-43,-40
39,-40,-42
52,-37,-45
54,-27,-34
57,-28,-43
53,-26,-47
46,-24,-60
38,-24,-58
29,-31,-56
27,-31,-52
26,-35,-46
27,-39,-40
26,-44,-31
31,-47,-25
31,-45,-13
35,-41,-6
31,-39,-4
40,-38,-2
39,-38,2
31,-42,1
32,-40,11
22,-46,-6
29,-61,-20
30,-64,-12
42,-76,0
41,-66,1
41,-59,2
33,-46,3
28,-45,1
20,-41,-3
21,-43,-5
26,-44,-4
30,-47,-4
37,-49,-1
44,-48,-8
46,-50,-11
60,-55,-4
64,-51,-5
61,-49,-13
51,-44,-13
42,-45,-13
43,-51,-12
42,-50,-8
34,-45,-7
30,-42,-3
28,-39,3
28,-42,2
25,-40,0
30,-41,-4
34,-43,-2
45,-57,13
45,-59,12
34,-65,-6
24,-66,-1
25,-70,0
36,-72,-3
36,-66,0
33,-49,3
33,-44,0
33,-37,-1
30,-38,-9
28,-39,-14
38,-46,-7
46,-57,3
54,-66,12
50,-64,9
44,-52,5
46,-58,14
47,-59,18
34,-47,19
28,-39,16
19,-23,17
14,-21,17
23,-32,10
19,-31,16
23,-32,17
26,-44,14
27,-53,14
28,-70,16
27,-78,-3
33,-79,1
39,-76,-5
35,-70,-9
47,-66,-8
46,-61,-9
47,-49,0
42,-44,-13
36,-43,-16
29,-38,-8
23,-38,-6
13,-48,-3
12,-53,5
11,-67,12
15,-68,20
12,-65,24
20,-64,33
20,-65,30
18,-53,25
21,-50,31
13,-43,19
5,-46,4
1,-46,1
12,-47,7
17,-47,12
19,-64,20
15,-70,19
1,-79,2
7,-82,2
4,-83,5
7,-81,8
10,-74,10
14,-55,11
15,-47,4
16,-39,-3
21,-36,-1
23,-40,-3
23,-44,-1
22,-52,5
25,-71,8
21,-74,7
27,-74,0
40,-70,-3
38,-62,6
28,-64,14
27,-70,6
15,-62,12
11,-48,9
9,-46,2
6,-41,1
7,-42,-3
10,-50,-5
11,-56,0
15,-71,-3
16,-72,-4
7,-82,-11
10,-87,-21
14,-84,-17
21,-72,-13
21,-64,-9
19,-48,-9
21,-41,-14
19,-39,-13
15,-38,-17
17,-41,-18
26,-58,-4
28,-67,-3
30,-69,-8
33,-72,-5
34,-73,-6
32,-74,-5
27,-77,-6
8,-67,1
2,-54,3
-3,-42,-7
-1,-36,-12
-1,-36,-17
5,-49,-33
11,-56,-38
20,-69,-48
29,-72,-47
39,-75,-47
40,-69,-31
38,-66,-26
27,-60,-13
23,-58,-8
13,-60,-8
9,-61,-5
3,-57,-1
7,-50,10
14,-54,8
24,-63,-10
25,-60,-3
17,-53,17
17,-54,13
14,-57,-1
14,-54,2
16,-52,6
18,-48,12
16,-39,20
11,-19,24
-17,3,5
-16,9,3
5,19,0
27,22,-9
59,23,-15
87,30,-13
116,34,0
127,30,-11
127,37,-10
94,33,0
127,13,-9
127,0,-20
110,6,-9
32,-12,-23
40,11,-30
62,12,-22
50,21,-26
32,30,-29
67,29,-40
83,24,-44
50,45,-56
51,22,-25
43,24,1
38,-3,-30
32,-24,-31
53,-9,16
47,-13,17
77,-4,-24
57,-5,-28
61,-3,-31
61,5,-32
55,6,-13
125,-10,15
99,2,5
127,20,23
107,15,20
112,11,13
96,-16,25
90,-30,26
42,-47,-14
48,-18,-18
39,-20,-49
34,6,-33
35,4,-24
58,0,-17
75,-6,-18
85,-14,0
91,-22,44
79,-19,60
59,-4,63
40,4,57
18,31,34
15,35,29
4,35,21
-5,43,19
7,67,32
-3,77,36
-25,62,32
-36,118,36
104,127,83
127,127,120
13,127,-56
-24,127,-128
127,28,-128
33,-47,3
-64,28,-128
54,73,-128
127,83,-23
127,46,11
127,43,-53
-4,4,-128
-64,-49,-128
-45,-14,-128
-27,-13,-85
63,-37,-49
121,-8,12
121,15,42
115,59,25
126,69,16
82,61,38
51,52,75
-15,66,51
-1,64,37
9,54,16
79,57,12
123,85,24
127,127,19
127,127,22
127,127,35
127,116,25
125,95,27
94,58,37
96,48,33
28,25,5
15,5,-22
13,-34,-27
2,-34,-23
-14,-30,-23
-19,-19,-12
-15,-16,6
10,-6,20
71,3,45
60,3,35
87,36,21
103,40,32
75,18,30
108,14,47
77,-17,36
77,-13,25
87,-32,21
80,-13,15
92,-4,16
57,13,-8
36,3,-14
22,1,2
34,-12,23
27,-11,22
28,-4,29
32,-3,20
36,0,30
28,-5,31
31,-11,23
72,-8,27
123,0,28
127,35,33
125,26,32
108,39,18
92,27,13
58,8,-3
27,-15,-4
10,-20,-6
-12,-14,-6
-2,-9,-1
-13,-5,-9
3,0,-5
24,15,3
60,14,0
106,16,-8
127,45,-7
127,44,-6
127,19,0
127,20,0
85,-14,19
64,-12,40
54,-2,41
34,35,65
53,66,81
106,127,110
127,127,110
126,125,108
127,116,96
127,109,78
114,92,38
107,90,25
93,89,-7
72,66,-25
58,56,-35
48,51,-62
57,54,-86
41,45,-126
20,28,-128
4,-12,-128
32,-25,-128
100,2,-128
104,-7,-128
84,19,-128
-67,127,-128
-78,127,-128
127,127,-128
127,127,-128
-38,98,-128
127,127,98
92,127,52
-80,-25,-128
65,43,-128
127,127,-54
127,127,2
127,127,25
26,127,21
-30,127,8
-56,127,-28
-76,127,-22
-84,113,10
-51,85,20
-20,81,46
17,80,81
35,70,79
66,43,103
66,31,102
67,18,96
64,11,88
60,0,80
44,-29,57
39,-35,49
40,-41,39
55,-33,38
85,-26,45
95,-5,60
98,-12,40
70,-8,22
60,-5,27
39,-1,19
35,-3,14
28,-1,11
38,5,20
48,12,19
92,20,15
112,33,18
90,35,31
72,17,32
62,-14,26
46,-17,23
35,-18,22
25,-10,21
22,-2,22
12,0,10
15,1,3
48,-4,-4
127,13,6
127,40,11
127,29,11
127,32,8
102,23,1
45,5,-8
25,-1,-10
-1,-9,-5
-8,-11,-1
-15,-9,0
-9,-9,1
8,-5,3
34,7,11
75,16,21
121,79,32
127,71,33
127,73,25
127,72,25
72,29,14
12,2,13
0,-2,14
5,-12,8
9,-16,6
36,-22,10
56,-19,15
121,17,19
120,34,10
104,22,10
56,10,44
41,-2,54
22,-9,48
21,-5,51
54,20,87
58,38,80
75,47,93
110,89,104
115,96,96
127,109,93
120,87,88
96,55,45
91,51,4
78,45,-15
52,36,-30
48,37,-32
50,46,-43
52,53,-48
29,55,-61
44,49,-79
49,52,-81
62,43,-65
57,38,-61
69,49,-68
70,37,-74
62,36,-82
42,55,-128
43,79,-128
27,111,-128
4,127,-128
-80,127,-128
-23,127,-128
46,127,-128
92,127,-128
-107,127,-88
75,127,-17
121,127,91
75,127,-128
21,127,-22
45,127,60
68,111,-27
7,106,-80
-40,122,-91
-51,127,-100
-71,127,-13
-44,127,47
-19,127,69
17,127,80
33,118,85
61,84,86
73,72,83
77,39,76
61,20,57
52,9,48
46,13,41
44,17,38
48,20,24
52,23,19
62,31,20
61,25,18
53,24,17
38,14,13
34,11,9
37,2,2
41,3,1
49,7,-4
60,11,-8
64,9,-7
60,10,1
59,10,9
54,7,21
57,8,22
80,7,40
89,14,57
80,27,50
71,25,44
56,22,41
36,14,27
24,-7,14
19,-11,14
14,-12,16
25,-11,12
67,-18,5
80,-16,9
106,15,22
95,8,12
56,3,13
43,-1,7
29,-4,1
30,-2,21
27,6,20
62,22,16
95,52,25
108,59,24
127,52,17
116,47,15
65,31,26
44,24,25
18,0,19
1,-8,11
-6,-8,9
-14,-5,1
-10,-1,-1
7,15,2
22,22,-1
82,85,33
127,96,38
127,107,61
127,105,67
127,79,57
90,18,38
60,-8,41
26,-17,36
19,-22,10
19,-20,3
31,-19,0
43,-19,-3
85,-23,0
105,-3,17
82,14,30
58,13,39
47,10,38
6,18,41
-53,23,36
93,58,38
66,52,29
64,47,22
39,39,69
58,29,81
111,7,101
104,8,93
75,9,35
17,24,-7
2,24,-34
-65,81,-42
-31,127,-48
-35,100,-76
-33,127,-86
-6,127,-83
1,127,-13
10,127,8
53,127,36
60,127,28
82,116,19
71,76,31
41,18,18
9,-11,17
-3,-12,14
-2,0,2
13,21,-3
44,105,-11
42,126,-19
37,112,-26
30,103,-14
22,88,-8
25,52,7
28,35,17
48,-3,54
52,-24,72
60,-24,75
56,-11,39
44,4,15
41,50,-19
51,85,-27
59,127,-34
58,127,-34
49,119,-33
34,68,-15
27,43,-3
1,2,16
-14,-2,20
-20,17,19
-2,44,16
5,67,11
42,115,-9
59,122,-12
60,118,-3
63,108,1
45,68,-1
39,15,5
37,-7,16
39,-45,26
51,-53,28
71,-24,24
78,-17,24
121,84,45
127,121,39
126,102,25
95,88,20
75,77,19
31,56,6
10,43,-6
3,25,-17
-36,66,-24
-34,64,-13
-70,91,6
-75,55,-27
0,83,-83
-128,78,-6
-8,105,32
69,127,56
61,125,57
53,103,57
54,94,48
58,56,25
55,33,20
62,12,25
63,-19,12
63,-24,11
50,-5,14
43,13,13
38,51,6
36,70,0
26,94,-9
29,113,-7
31,108,-5
30,88,0
32,74,-1
27,47,-6
21,35,-4
13,15,-15
2,12,-32
15,30,-40
56,127,-28
46,127,-10
39,112,8
67,101,6
87,85,4
85,43,12
86,23,16
79,-27,36
71,-47,56
63,-51,71
73,-15,53
90,24,39
97,120,22
86,127,26
71,127,20
55,123,21
12,80,19
4,64,12
-18,37,-3
-32,23,-16
-30,29,-21
-15,39,-29
-7,32,-28
11,55,20
15,104,70
12,105,69
44,113,52
24,108,76
-10,52,40
-23,28,33
-4,15,58
23,7,71
31,9,72
40,36,46
44,93,35
46,123,-2
45,121,-6
20,117,-23
8,86,-21
-2,67,-17
-9,26,7
-17,11,17
-43,15,26
-41,37,19
-13,70,-3
81,127,0
73,115,3
126,63,16
93,55,15
56,11,1
63,-22,14
62,-35,19
43,-51,37
35,-54,38
33,-31,31
52,-10,21
111,44,-15
127,94,-13
110,94,-13
87,66,5
74,51,16
44,34,29
29,31,34
0,45,28
-6,57,26
15,68,34
60,61,32
77,56,23
88,21,1
94,0,13
93,-13,6
75,-27,24
58,-36,25
22,-46,24
16,-46,23
12,-42,6
9,-42,7
10,-34,15
50,-19,22
108,4,30
106,-1,46
81,-15,53
71,-21,60
73,-27,56
57,-26,50
53,-7,26
44,0,20
43,23,26
45,32,33
47,22,39
56,16,40
64,6,50
73,-24,55
76,-39,44
74,-54,49
69,-59,54
53,-52,38
55,-40,24
52,-7,-9
44,12,-38
54,19,-47
36,29,-50
32,25,-57
22,20,-83
21,14,-83
8,10,-74
4,8,-72
9,14,-88
10,43,-128
13,58,-128
20,127,-128
19,127,-128
75,127,-128
87,127,-128
53,127,-128
-35,127,18
127,127,-42
29,58,-85
14,41,-105
60,47,-82
53,47,-49
43,38,-42
71,33,-22
66,33,-26
53,32,-26
24,38,-36
0,42,-29
-45,45,-16
-60,49,-13
-115,41,6
-40,46,24
-38,44,68
-61,39,64
-34,36,61
19,20,58
36,16,56
57,6,56
59,2,58
65,5,61
78,10,80
92,4,89
51,-18,56
44,-16,43
37,-10,42
56,-5,48
61,-17,30
81,-17,22
90,-5,24
87,4,22
78,6,18
52,10,21
32,3,13
25,-8,7
37,-3,6
49,-5,4
77,6,-6
108,8,-18
114,11,-22
102,8,-15
79,2,-14
59,0,-4
49,-2,0
33,-9,1
30,-13,-2
27,-18,1
28,-15,1
39,-11,2
51,-6,7
60,-3,11
78,1,27
96,2,34
111,13,44
115,4,44
113,16,46
83,27,44
61,21,36
27,7,21
14,3,16
3,-5,8
-5,-13,1
-1,-16,-1
45,-6,-1
85,9,-2
127,36,-10
127,44,-11
117,32,-12
67,14,-19
45,2,-17
7,-7,-4
0,-9,2
-8,-6,7
-5,-5,10
27,5,11
94,16,14
122,15,14
127,14,28
127,20,25
123,22,26
61,-4,29
48,-14,25
32,-10,39
33,-2,41
38,18,42
46,24,38
85,53,49
96,67,57
127,86,62
125,73,68
107,58,77
89,51,84
86,57,75
73,71,41
71,73,31
60,71,11
70,68,-11
64,73,-23
40,67,-41
31,63,-44
19,64,-65
15,56,-64
18,52,-64
36,47,-128
46,27,-128
15,3,-128
27,-14,-128
-25,73,-128
17,127,-128
127,127,-128
127,127,-128
127,127,-128
16,127,18
127,127,5
118,127,14
82,115,-128
85,118,-85
127,101,-27
127,110,-23
93,127,10
71,127,24
24,127,20
1,127,5
-18,127,0
-50,127,0
-68,115,6
-73,98,-20
-74,92,-8
-58,73,22
-13,65,41
-10,55,49
6,44,60
11,35,62
41,18,85
57,16,95
71,-12,118
66,-14,109
62,-19,100
30,-15,76
45,-16,59
32,-18,35
26,-14,28
22,-2,29
30,7,38
43,22,63
60,34,74
62,39,79
52,36,73
47,27,66
36,13,52
21,2,38
16,-1,32
19,-1,24
16,-2,19
49,-7,17
85,-5,22
127,12,20
127,34,17
125,24,12
85,8,4
59,2,2
22,-9,0
4,-14,-1
-1,-10,3
-6,-1,9
4,3,11
50,16,17
86,17,20
124,32,37
121,38,34
127,41,37
69,30,27
46,20,17
14,6,2
6,1,-2
-10,0,-4
-7,1,-3
