64
0
0
0
0
0
0
0
0
0
0
0
0.01
0.01
0
-0.03
-0.05
-0.05
0
0.13
0.36
0.66
1.01
1.37
1.72
2.06
2.4
2.79
3.24
3.8
4.42
5.06
5.66
6.2
6.68
7.15
7.68
8.31
9.14
10.09
11.04
11.88
12.56
13.14
13.76
14.65
15.96
17.91
20.32
22.9
25.38
27.58
29.57
31.68
34.32
37.81
42.54
48.15
54.1
59.83
64.97
69.58
74.14
79.34
85.71
93.76
103
112.62
121.73
129.77
136.75
143.3
150.75
157.77
166.64
177.95
191.79
206.97
220.57
228.25
225.36
208.53
176.87
132.76
80.05
23.07
-34.94
-92.44
-149.16
-205.23
-260.37
-313.74
-363.87
-409.83
-450.91
-486.5
-515.74
-537.23
-549.22
-549.96
-538.37
-514.21
-478.67
-433.88
-382.45
-327.02
-269.84
-212.63
-156.66
-102.95
-52.37
-5.9
35.58
71.43
101.35
125.5
144.38
158.69
169.15
176.37
180.75
182.57
182.07
179.51
175.23
169.65
163.18
156.15
148.81
141.3
133.69
126.02
118.33
110.69
103.16
95.8
88.68
81.83
75.25
68.95
62.95
57.25
51.86
46.78
42.03
37.59
33.45
29.61
26.07
22.8
19.82
17.12
14.69
12.51
10.57
8.83
7.29
5.93
4.76
3.78
2.99
2.37
1.89
1.51
1.19
0.91
0.66
0.43
0.24
0.09
-0.02
-0.11
-0.19
-0.31
-0.49
-0.72
-0.99
-1.24
-1.39
-1.4
-1.28
-1.11
-1
-1.04
-1.28
-1.65
-2.02
-2.23
-2.21
-1.98
-1.71
-1.6
-1.83
-2.47
-3.42
-4.48
-5.36
-5.85
-5.9
-5.65
-5.38
-5.43
-6.04
-7.24
-8.83
-10.48
-11.7
-12.08
-11.56
-10.32
-9.07
-8.83
-10.69
-14.98
-20.63
-25.17
-25.51
-19.46
-7.01
9.03
24.04
33.4
34.48
27.69
15.93
2.97
-8.3
-16.43
-21.19
-22.66
-20.7
-15.37
-7.2
2.81
13.89
26.19
41.28
60.69
84.24
108.29
125.8
128.92
112.71
78.69
33.78
-11.34
-47.13
-69.01
-78.51
-81.58
-84.95
-93.02
-105.66
-118.61
-125.28
-119.49
-97.75
-60.56
-12.8
37.27
79.19
104.38
108.53
92.61
62.26
25.92
-7.57
-31.06
-40.15
-33.59
-13.01
17.53
52.49
86.14
113.66
132.13
139.44
134.84
118.7
91.87
57.01
18.63
-17
-43.44
-56.08
-53.92
-39.84
-20.81
-4.89
1.6
-4.26
-21.22
-45.22
-71.56
-96.98
-119.67
-138.24
-150.25
-150.78
-134.97
-100.52
-49.78
9.71
66.95
111.09
134.9
136.11
119.08
91.31
60.87
34.06
14.1
1.17
-6.38
-10.59
-12.64
-12.2
-8.54
-1.62
6.8
13.73
16.11
12.76
5.25
-2.65
-6.82
-5
2.13
11.07
17.42
17.54
10.1
-3.78
-21.04
-37.53
-48.92
-51.22
-41.92
-21.45
5.7
31.56
47.08
45.86
27.34
-2.53
-33.82
-57.29
-68.39
-69.03
-65.66
-65.26
-71.54
-83.17
-94.85
-100.32
-95.29
-79.16
-55.1
-28.18
-3.22
16.84
31.53
42.1
50.04
55.62
58.57
57.83
52.53
43.22
32
21.85
15.44
13.9
16.56
21.65
27
31.38
34.62
37.06
38.16
36.23
28.81
14.22
-6.68
-29.89
-49.31
-59.25
-56.99
-43.94
-24.59
-4.4
12.53
24.68
32.67
38
41.96
45.19
47.97
51.1
55.89
63.58
74.28
86.09
95.32
97.55
89.33
69.64
40.96
8.24
-22.83
-47.95
-65.43
-76.44
-83.97
-90.91
-97.93
-102.17
-98.59
-83.02
-55.18
-20.18
12.96
35.26
41.66
31.14
7.87
-21.28
-50.87
-79.08
-106.6
-133.61
-156.87
-170.05
-166.87
-145.05
-108.72
-67.29
-31.51
-9.31
-3
-9.25
-20.81
-29.21
-26.79
-8.8
25.29
71.56
122.51
168.9
202.16
216.03
207.74
177.93
129.68
67.71
-2.48
-74.96
-143.85
-203.64
-249.92
-279.87
-292.23
-287.88
-269.26
-239.7
-202.3
-159.17
-111.75
-61.99
-13.79
26.59
51.99
57.47
43.52
16.93
-11.26
-30.57
-36.02
-29.9
-19.86
-14.2
-17.19
-27.17
-38.22
-43.87
-40.34
-27.57
-7.74
17.28
47.72
85.84
133.78
190.79
251.56
306.83
346.19
361.76
351
316.96
265.93
204.27
136.28
64.4
-8.42
-76.51
-131.07
-162.56
-164.26
-135.37
-81.72
-14.15
54.44
112.05
149.64
162.36
149.93
115.97
66.46
7.77
-55.12
-118.99
-181.47
-239.5
-288.4
-322.7
-337.91
-332.57
-308.72
-270.8
-223.46
-169.67
-109.92
-42.67
33.95
119.67
210.39
297.89
371.44
420.99
440.64
430.5
396.11
345.55
286.18
223.13
160.18
101.64
53.65
23.38
16.4
34.15
73.27
126.85
187.16
247.51
302.66
347.63
377.43
387.67
376.23
344.86
298.14
242.01
182.13
122.92
67.12
16.15
-29.49
-70.85
-110.81
-154.92
-208.55
-272.43
-339.74
-398.15
-434.3
-438.77
-409.68
-351.93
-276.44
-195.72
-119.66
-54.42
-5.2
24.02
32.94
27.38
19.69
21.39
37.13
62.5
86.16
93.45
75.02
33.11
-25.57
-78.99
-104.97
-99.2
-78.69
-61.96
-59.34
-71.82
-95.64
-125.27
-155.27
-184.59
-215.38
-248.9
-275.79
-287.05
-277.4
-245.7
-192.98
-121.71
-39.54
41.51
109.56
157.89
184.75
194.14
197.74
200.92
205.24
208.41
207.12
200.53
191.67
184.23
181.73
178.04
171.36
159.62
139.3
108.14
68.28
27.96
-6.13
-27.59
-33.34
-24.98
-9.3
4.34
7.89
-2.55
-25.13
-56.38
-91.8
-127.08
-159.02
-186.97
-212.58
-238.75
-268.15
-302.01
-339.46
-376.22
-404.1
-413.75
-399.24
-360.8
-304.66
-239.69
-174.37
-114.56
-62.13
-14.3
33.67
85.3
141.76
202.07
265.51
331.76
400
455.57
481.97
471.05
428.01
365.59
294.45
222.83
157.34
103.34
63.76
39.99
30.61
31.24
35.6
37.36
33.54
23.71
8.97
-9.68
-30.39
-51.22
-71.41
-84.64
-92.05
-95.65
-97.38
-97.86
-97.18
-94.47
-88.63
-83.51
-77.11
-71.48
-67.9
-67.14
-68.52
-71.24
-74.55
-78.21
-82.56
-88.14
-100.18
-116.44
-135.87
-156.3
-175.57
-192.08
-205.02
-213.94
-205.05
-173.87
-124.8
-69.34
-17.58
25.31
58.29
82.19
98.74
110.22
116.16
117.09
114.26
110.08
106.57
104.41
102.75
100.93
98.8
94.85
88.83
81.34
73.81
67.04
60.55
52.12
40.51
25.53
7.05
-13.76
-35.06
-54.5
-70.68
-83.69
-95.64
-108.08
-122.48
-140.44
-162.32
-186.51
-208.59
-222.91
-218.35
-195.18
-158.84
-118.57
-84.48
-63.48
-56.56
-58.93
-63.41
-65.43
-64.75
-63.18
-63.56
-67.85
-75.93
-85.68
-93.65
-97.67
-97.42
-93.61
-86.3
-75.45
-61.58
-45.62
-34.48
-32.93
-43.09
-62.85
-84.58
-98.21
-96.42
-78.24
-48.9
-14.73
18.45
46.14
64.77
75.88
82.4
86.49
88.66
89.33
94.16
107.43
128.48
149.68
168.73
184.87
198.08
207.42
212.66
221.79
240.09
266.01
288.52
306.78
323.21
340.9
360.39
382.7
419.29
476.86
551.52
623.88
684.76
727.57
747.85
741.67
649.08
456.11
203.11
-2.34
-153.65
-263.19
-350.79
-417.89
-462.57
-481.84
-466.84
-419.51
-357.83
-313.17
-295.97
-301
-308.55
-310.09
-301.93
-275.83
-232.76
-179.42
-130.63
-88.04
-49.64
-13.1
20.58
51.24
84.44
123.88
169.14
212.72
252.27
283.53
300.15
295.06
266.57
221.28
168.81
117.89
62.05
6.48
-39.94
-71.82
-90.21
-98.14
-97.59
-90.72
-80.62
-71.17
-65
-63.21
-66.45
-74.69
-86.76
-101.52
-118.67
-139.28
-156.56
-167.54
-172.25
-172.62
-170.32
-165.81
-158.89
-149.32
-137.47
-123.57
-109.51
-96.97
-86.96
-79.16
-72.01
-66.71
-59.99
-49.71
-34.5
-16.49
1.83
18.27
31.9
43.06
55.71
69.51
81.53
92.35
99.21
99.03
89.49
70
41.72
6.66
-33.83
-80.27
-122.07
-153.34
-171.41
-178.04
-177.75
-175.29
-173.78
-173.93
-173.27
-166.4
-149.46
-120.09
-79.5
-32.76
12.56
49.27
73.24
85
88.89
88.54
86.34
82.77
77.4
70.25
62.44
55.83
52.16
52.18
54.21
55.87
55.05
51.02
44.65
37.71
32.06
28.88
28.37
29.27
29.94
29.06
26.28
22.18
17.9
14.52
12.57
11.91
11.72
11.11
9.57
7.22
4.69
2.67
1.55
1.13
0.73
-0.34
-2.48
-5.42
-8.3
-10.13
-10.3
-9.08
-7.5
-7
-8.74
-12.83
-18.24
-23.17
-25.89
-25.62
-23.01
-19.96
-18.75
-20.76
-25.93
-32.52
-38.11
-40.45
-38.36
-31.65
-20.71
-6.51
8.97
21.82
26.77
19.31
-1.16
-29.45
-55.58
-68.73
-62.39
-37.67
-2.73
31.28
55.55
66.92
67.84
63.36
57.86
53.19
49.12
44.92
40.72
37.58
36.71
38.55
42.25
46.45
49.87
52.32
55
60.26
70.32
85.56
103.12
116.8
119.26
105.29
74.6
32.71
-11.05
-47.23
-69.86
-77.74
-74.41
-65.27
-54.37
-43.02
-30.56
-16.41
-1.58
11.33
19.43
20.86
16.34
8.62
1.01
-4.22
-6.98
-9.47
-14.86
-26.03
-44.92
-71.32
-102.96
-135.75
-164.08
-181.94
-184.5
-169.97
-139.13
-99.67
-61.14
-31.1
-12.58
-3.51
0.76
4.56
9.55
14.65
17.61
17.92
17.87
21.34
31.92
50.62
75.71
104.02
132.11
156.91
176.15
187.6
186.46
170.53
140.3
99.63
54.98
12.82
-23.1
-53.63
-81.48
-108.89
-135.01
-155.94
-166.43
-162.92
-144.61
-116.84
-87.73
-64.18
-49.4
-42.24
-39.02
-36.15
-31.97
-26.6
-20.71
-14.44
-7
2.45
13.91
26.08
36.71
44.15
48.42
51.52
56.38
66
82.59
106.74
136.64
167.66
193.41
203.91
193.21
160.82
112.33
57.66
6.68
-35.05
-68.21
-98.53
-130.61
-163.96
-193.05
-209.87
-208.04
-186.98
-150.87
-110.58
-77.46
-57.5
-48.81
-43.94
-35.27
-18.27
6.56
35.17
61.83
82.75
97.67
109.41
121.92
136.83
155.74
179.27
207.54
238.62
269.08
293.95
307.48
304.36
281.72
240.79
186.26
125.1
63.12
4.72
-47.38
-91.55
-126.82
-152.81
-168.57
-177.63
-184.06
-194.52
-215.09
-248.7
-293.48
-342.54
-385.79
-413.08
-418.1
-395.55
-349.26
-290.09
-231.15
-181.94
-145.14
-117.57
-95.05
-73.05
-49.46
-25.34
-2.21
19.46
40.39
61.34
82.96
105.61
129.63
155.9
185.36
219.38
258.59
301.08
341.45
371.53
383.01
370.91
335.98
284.24
224.93
166.79
114.65
68.17
22.84
-27.15
-85.39
-150.95
-217.95
-276.98
-318.32
-335.54
-327.53
-298.6
-256.14
-206.9
-154.5
-98.63
-36.22
36.21
117.99
203.56
282.97
344.34
377.5
376.81
342.48
280.2
199.88
113.8
35.42
-22.73
-51.65
-48.66
-19.36
23.08
61.66
81.38
74.63
43.57
-1.92
-49.31
-88.8
-116.09
-131.64
-138.25
-138.14
-132.32
-121.41
-107.09
-92.77
-83.01
-81.67
-89.64
-103.7
-116.73
-119.81
-105.9
-73.1
-25.82
26.7
74.01
107.99
124.89
125.09
111.18
86.3
53.58
16.79
-19.16
-48.49
-66.15
-69.25
-57.94
-35.02
-4.71
28.66
61.27
89.94
111.63
123.38
122.75
108.74
82.69
48.74
12.39
-20.33
-44.83
-59.2
-64.34
-62.88
-57.98
-51.84
-45.71
-40.26
-36.06
-33.88
-34.49
-38.62
-46.36
-56.76
-67.38
-74.44
-74.28
-64.4
-45.82
-22.3
0.95
19.96
33.32
41.76
46.14
45.66
37.35
18.57
-9.98
-42.75
-70.47
-83.99
-78.6
-56.4
-25.29
5.02
27.11
38.84
42.83
44.25
47.8
55.61
66.53
76.86
81.95
77.6
62.84
40.12
14.42
-8.53
-24.46
-32.42
-35.2
-37.76
-43.77
-53.49
-63.3
-67.27
-60.34
-41.41
-14.23
14.39
37.87
52.62
58.63
58.2
53.47
44.7
30.7
10.73
-13.46
-37.12
-54.03
-59.37
-51.59
-32.92
-7.94
18.58
42.99
63.31
78.28
86.66
86.55
76.47
56.46
28.74
-2.62
-32.83
-58.04
-76.38
-86.27
-89.28
-87.51
-82.46
-74.75
-64.96
-54.56
-45.95
-42.56
-45.49
-54.25
-65.98
-75.6
-77.36
-67.3
-45.34
-14.97
15.4
38.53
52.01
57.26
57.75
56.6
54.74
50.69
42.72
30.25
15.46
1.93
-7.85
-13.07
-13.95
-10.29
-1.16
16.16
44.25
84.76
134.19
183.79
221.88
237.42
224.15
181.92
118.04
43.96
-30.21
-90.66
-127.76
-140.99
-138.02
-128.15
-121.71
-120.04
-121.96
-125.85
-130.18
-134.08
-133.05
-122.75
-97.16
-58.47
-15.09
23.4
54.48
81
104.34
123.77
133.97
130.79
111.82
79.92
42.42
8.19
-16.62
-31.76
-40.44
-46.07
-48.25
-43.67
-26.26
8.82
60.7
121.06
174.74
206.08
204.67
169.01
105.11
25.58
-54.75
-123.33
-167.74
-183.49
-175.9
-155.91
-133.05
-113.77
-102.94
-98.65
-98.35
-98.86
-97.42
-90.56
-75
-45.4
-5.55
34.83
66.41
85.15
96.68
105.05
111
112.97
109.03
95.13
71.24
41.23
10.91
-13.79
-29.61
-35.18
-29.21
-9.86
22.9
65.75
110.6
146.02
161
148.38
107.29
45.02
-27.32
-92.73
-135.77
-151.14
-144.14
-124.63
-101.42
-81.58
-70.7
-69.24
-76.45
-90.04
-106.1
-118.65
-121.24
-104.97
-70.74
-27.42
12.46
39.41
53.54
60.78
68.35
78.02
91.88
104.47
109.67
103.84
85.1
57.7
28.98
6.73
-3.3
1.78
20.66
50.97
88.15
125.61
155.36
168.86
159.61
125.51
70.57
0.11
-71.24
-127.35
-158.76
-166.22
-156.81
-138.15
-115.95
-93.37
-73.22
-57.95
-51.96
-57.18
-72.83
-94.52
-114.43
-124.55
-118.9
-96.38
-58.56
-15.84
18.92
37.32
39.44
34.71
31.37
34
42.56
53.7
63.31
68.76
69.88
66.62
61.46
56.75
54.88
58.08
68.19
87.06
114.37
146.47
176.76
197.57
201.24
183.4
144.51
83.37
9.81
-59.73
-111.05
-138.94
-146.04
-139.19
-124.73
-107.26
-92.99
-85.31
-87.65
-102.17
-127.85
-159.58
-190.22
-212.36
-214.66
-193.6
-153.99
-107.92
-68.23
-42.11
-26.09
-13.44
2.21
25.34
55.38
87.36
116.38
139.36
155.91
168.05
178.96
192.44
212.33
237.75
263.31
280.86
282.45
263.13
222.81
165.93
92.83
13.61
-57.82
-111.22
-144.08
-159.28
-160.82
-151.8
-135.16
-115.2
-98.18
-90.27
-96.52
-116.92
-145.48
-172.34
-187.48
-184.69
-159.63
-117.22
-70.51
-34.26
-16.14
-12.23
-12.19
-6.27
10.64
37.52
69.11
98.26
116.43
120.66
113.73
102.18
93.62
94.64
108.66
135.02
167.91
197.63
214.92
213.38
190.69
148.65
92.56
24.99
-44.11
-102.51
-142.93
-164.25
-169.11
-160.47
-141.5
-116.13
-89.79
-69.84
-61.67
-68.52
-88.88
-117.23
-145.85
-167.86
-178.45
-171.07
-144.99
-107.01
-68.51
-38.56
-19.7
-6.59
6.96
25.41
50.04
79.17
108.96
133.17
148.81
156.43
159.56
162.84
170.93
186.25
207.09
226.14
233.08
219.45
182.19
124.66
54.71
-17.8
-85.14
-136.4
-165
-172.16
-164.74
-149.83
-131.91
-113.85
-97.85
-87.76
-84.16
-87.4
-96.28
-107.03
-113.87
-111.38
-97.69
-70.96
-36.46
-2.21
25.08
46.11
64.51
82.61
98.5
105.12
92.49
56.05
0.32
-62.03
-114.08
-141.6
-137.27
-103.74
-53.11
0.87
48.94
88.66
122.85
156.28
186.34
208.34
226.16
237.8
235.57
216.87
183.5
140.59
94.39
49.92
10.42
-23.78
-55.82
-88.99
-124.29
-160.82
-196.04
-226.41
-248.11
-257.12
-251.55
-233.07
-205.71
-173.39
-138.72
-101.78
-60.47
-12.41
43.44
99.84
146.1
171.21
170.3
147.17
112.76
79.53
56.49
47.47
49.2
56.67
67.22
82.67
105.57
134.24
159.87
170.45
158.02
119.96
61.92
-5.18
-68.85
-117.55
-143
-145.68
-139.17
-130.97
-126.41
-126.27
-133.51
-150.79
-179.21
-216.38
-257.65
-294.42
-306.88
-282.77
-224.09
-148.11
-76.62
-27.55
0.28
13.87
22.58
36.84
61.41
97.22
141.03
186.79
225.92
249.98
250.14
222.28
170.92
106.58
44.13
-1.77
-20.37
-7.92
33.4
93.66
158.82
215.15
250.98
259.48
239.44
195.23
127.65
48.3
-26.17
-82.04
-113.78
-124.09
-119.38
-106.43
-91.31
-79.65
-75.18
-78.85
-89.9
-104.84
-117.62
-121.37
-111.14
-83.51
-43.91
-2.48
29.75
45.96
46.54
37.86
28.01
22.5
22.36
24.08
24.37
21.73
16.98
12.61
11.83
15.83
24.29
36.03
48.83
61.23
71.87
78.69
78.87
69.79
50.3
20.15
-14.46
-46.12
-68.74
-79.9
-80.7
-74.04
-62.8
-48.9
-33.77
-18.87
-7.66
-2.82
-6.02
-17.28
-34.98
-56.2
-76.9
-92.48
-96.29
-85.58
-61.67
-29.72
3.11
30.35
48.49
57.61
60.41
60.28
59.01
57.02
53.82
49.25
44.35
41.38
42.98
49.3
57.71
62.67
57.98
39.66
8.35
-30.35
-67.76
-95.73
-108.46
-106.49
-95.27
-80.83
-66.83
-53.5
-39.54
-24.3
-9.17
2.11
6.16
0.72
-13.84
-34.33
-55.08
-69.81
-73.27
-61.96
-38.45
-9.32
17.21
35.37
44.01
46.93
49.05
53.99
62.79
73.77
84.77
93.74
100.59
106.71
113.97
123.59
135.65
148.71
159.3
163.01
154.17
129.21
88.35
36.37
-19.18
-70.64
-113.25
-146.78
-167.44
-174.89
-170.75
-157.86
-138.82
-115.74
-90.45
-64.98
-41.06
-19.6
-3.66
6.08
8.9
4.04
-9.19
-31.07
-60.77
-95.57
-126.1
-143.11
-139.7
-115.22
-75.76
-31.59
7.27
34.98
51.34
60.45
65.83
69.04
69.28
65.12
56.67
46.3
37.75
34.82
39.45
50.46
65.28
80.38
92.24
97.6
93.75
79.35
53.73
21.6
-10.32
-35.74
-51.38
-57.52
-56.75
-51.95
-44.65
-35.16
-23.45
-11.54
-2.99
-2.34
-12.94
-34.96
-64.51
-94.37
-116.02
-120.66
-105.58
-75.08
-38.68
-6.93
13.23
21.08
21.98
23.06
29.36
42.09
58.17
72.86
82.58
86.82
87.89
88.99
92.29
98.16
106.28
115.23
123.42
129.18
130.69
125.85
112.67
90.08
54.26
8.91
-37.34
-74.52
-96.2
-101.51
-93.88
-78.07
-58.22
-39.26
-23.16
-13.04
-12.42
-23.94
-48.04
-82.57
-123.26
-159.98
-182.13
-181.21
-155.92
-112.8
-63.3
-18.66
14.31
34.74
46.28
53.29
58.65
62.38
63.18
60.33
55.18
50.92
51.73
59.91
74.22
89.85
99.21
94.88
72.66
33.88
-14.65
-62.98
-100.06
-118.22
-117.26
-103.08
-83.71
-65.16
-49.29
-35.15
-22.07
-11.84
-7.75
-13.52
-29.43
-50.77
-69.09
-75.21
-62.77
-34.03
2.4
36.29
59.43
68.42
64.8
50.8
29.12
2.99
-23.43
-44.49
-54.2
-49.69
-32.23
-6.93
19.89
43.99
64.41
83.17
103.85
130.06
159.94
189.13
211.18
219.59
210.37
183.17
141.69
89.15
34.11
-14.38
-50.11
-72.66
-85.29
-90.79
-89.8
-81.44
-65.77
-44.82
-24.92
-11.83
-9.89
-20.42
-41.29
-67.92
-94.66
-116.09
-123.97
-113.94
-86.81
-49.4
-11.62
17.86
35
41.71
43.97
49.51
60.96
76.29
89.2
91.91
79.24
50.93
11.77
-30.66
-68.63
-97.72
-117.78
-132.09
-144.84
-158.98
-175.76
-192.92
-210.15
-228.22
-248.08
-268.45
-284.93
-290.89
-280.37
-251.11
-206.15
-153.28
-101.41
-57.54
-24.71
-2.26
12.61
23.19
32.36
42.92
57.92
81.25
116.12
162.97
217.49
270.49
309.75
324.04
307.14
260.11
191.35
113.71
40.63
-17.51
-54.99
-70.53
-65.93
-44.54
-10.3
32.97
81.85
133.81
187.53
242.94
300.62
360.44
420.13
474.25
515.19
535.75
532.45
507.39
467.98
424.1
384
351.38
324.76
299.7
272.04
240.17
204.75
167.74
130.76
94.44
58.85
23.91
-10.11
-42.86
-75
-110.02
-152.59
-205.49
-266.61
-328.34
-380.06
-412.82
-423.38
-415.8
-401.57
-393.98
-402.34
-428.42
-466.84
-508.04
-541.45
-557.32
-548.05
-512.71
-457.04
-392.42
-333.03
-292
-277.78
-291.63
-327.54
-357.53
-355.8
-308.42
-220.55
-111.52
-1.8
95.76
176.14
238.45
280.63
302.37
302.73
283.36
249.95
210.54
172.18
138.13
107.1
76.98
41.45
-5.99
-67.35
-138.71
-210.7
-271.61
-311.2
-323.93
-310.49
-279.07
-240.64
-202.85
-168.44
-135.68
-101.09
-62.25
-18.84
27.43
72.79
114.74
154.82
196.07
240.94
289.62
339.86
388.14
430.81
463.72
470.67
441.53
376.17
285.87
187.49
95.49
18.3
-36.97
-75.81
-104.08
-123.76
-134.95
-136.58
-127.44
-108.46
-80.55
-45.33
-5.98
34.78
75.32
113.15
144.68
165.93
174.28
170.89
160.67
149.94
144.73
147.74
155.45
158.81
146.77
111.41
52.32
-22.5
-99.66
-164.31
-205.18
-218.08
-205.82
-175.41
-134.09
-86.32
-33.97
21.3
75.83
122.77
153.7
161.8
145.14
107.71
57.5
2.56
-52.49
-107.32
-164.13
-223.76
-282.85
-333.66
-367
-376.36
-361.02
-326.22
-280.4
-231.47
-183.83
-137.58
-89.93
-38.1
18.34
76.6
131.67
178.85
216.5
247.54
278.51
316.3
364.09
418.44
469.89
506.75
520.37
508.89
477.49
435.08
389.63
344.82
300.12
253.17
203
151.6
102.87
59.88
22.12
-15.15
-58.46
-111.95
-173.71
-234.8
-281.53
-300.68
-284.67
-234.68
-160.5
-77.3
-1.16
54.69
82.11
78.93
48.97
1.52
-50.37
-93.17
-117.03
-119.29
-105.14
-84.98
-69.18
-63.33
-65.93
-69.59
-64.75
-43.66
-2.87
56.05
127.32
202.4
271.49
325.39
357.66
366.36
354.78
330.07
300.47
272.74
250.64
234.73
223.43
214.31
204.6
191.18
170.66
140.19
99.13
50.26
-0.87
-48.15
-87.41
-117.96
-141.96
-162.23
-180.53
-196.47
-208.43
-215.43
-218.45
-220.13
-223.11
-228.09
-233.1
-235.72
-233.57
-225.61
-212.37
-195.69
-178.21
-163.08
-153.18
-151.01
-161.21
-186.88
-227.57
-277.8
-327.7
-365.87
-383.08
-374.91
-342.55
-295.69
-245.16
-199.21
-161.56
-133.24
-115.74
-112.37
-126.58
-159.11
-211.88
-282.26
-364.23
-449.42
-530.17
-601.67
-662.38
-712.51
-718.14
-656.23
-522.34
-338.14
-139.11
44.3
197
317.1
409.54
480.36
528.53
552.5
550.95
528.53
493.11
453.4
416.03
384.13
357.05
327.42
290.98
244.46
188.66
127.68
68.35
18.98
-11.43
-15.25
2.64
37.88
79.57
114.52
131.58
126.78
104.26
74.08
47.2
29.17
20.2
13.27
3.02
-15.46
-43.6
-79.8
-120.55
-161.43
-198.06
-218.91
-216.21
-189.39
-147.41
-103.14
-67.21
-44.15
-33.05
-30.73
-33.96
-42.6
-57.26
-77.54
-99.81
-118.93
-131.18
-134.67
-130.42
-121
-110.42
-101.51
-95.11
-89.24
-81.2
-69.2
-53.23
-35.06
-17.06
-1.6
10.67
17.01
18.06
15.7
11.76
7.13
1.59
-5.73
-15.92
-29.46
-45.91
-63.27
-79.38
-92.55
-102.09
-108.33
-112.16
-114.53
-115.82
-115.57
-112.19
-104.14
-90.59
-71.95
-49.78
-26.22
-3.15
18.57
39.36
60.88
84.81
111.95
141.56
171.63
199.43
222.78
240.97
254.97
267.28
281.01
298.95
322.61
351.5
382.54
410.29
427.92
429.28
411.45
376.64
332.54
290.4
261.35
252.28
263.27
287.43
313.48
329.89
328.67
307.53
269.7
221.88
171.51
124.48
84.01
50.79
24.2
3.45
-11.79
-21.64
-26.75
-28.74
-29.6
-30.2
-28.71
-20.2
1.46
40.03
93.53
152.89
204.09
233.02
230.67
196.1
136.12
62.1
-13.86
-81.92
-135.89
-173.53
-196.15
-208.24
-216.56
-228.67
-250.86
-285.91
-331.42
-379.77
-419.89
-440.65
-434.63
-401.15
-347.19
-285.72
-231.75
-197.47
-188.3
-201.43
-227.66
-255.18
-273.75
-277.28
-264.65
-238.09
-201.39
-158.4
-112.24
-65.46
-20.26
21.08
56.35
84.18
105.32
123.44
144.48
174.26
215.07
263.05
308.08
336.88
338.35
308.45
252.08
181.23
110.12
49.89
5.58
-24.09
-44.35
-61.44
-80.43
-104.07
-132.19
-161.73
-187.65
-204.16
-206.79
-193.84
-166.46
-127.9
-81.93
-31.62
20.97
74.26
126.31
174.41
215.67
248.14
271.43
286.61
295.13
297.3
291.79
276.09
247.72
206
153.05
93.21
31.42
-28.6
-85.4
-139.04
-189.59
-235.52
-273.22
-298
-306.05
-296.05
-269.53
-229.92
-180.23
-122.15
-56.83
13.27
83.1
144.67
189.37
211.8
212.3
198.82
183.39
176.54
183.04
201.43
224.85
244.63
253.33
245.2
219.28
177.49
123.31
62.12
3.1
-43.11
-67.52
-66.26
-44.45
-10.01
28.03
61.95
88.27
110.39
135.55
171.34
222
284.05
353.19
423.88
489.82
529.96
527.9
478.27
391.61
305.9
234.45
179.16
137.56
102.61
71.96
46.96
29.14
18.33
11.67
1.94
-14.15
-36.42
-62.66
-89.17
-111.21
-125.42
-131.09
-130.61
-130.51
-134.62
-144.03
-157.86
-173.7
-188.22
-198.85
-204.84
-207.61
-211.31
-218.6
-230.55
-247.03
-266.68
-286.87
-304.39
-316.11
-319.99
-316.52
-307.38
-295.5
-284.22
-276.06
-271.7
-270.08
-269.29
-267.81
-265.56
-263.34
-262.4
-263.66
-267.16
-272.03
-276.97
-280.92
-283.74
-286.45
-290.9
-298.72
-309.99
-322.2
-330.24
-327.62
-308.71
-270.53
-214.17
-144.89
-71.4
-4.36
45.44
69.15
61.85
24.15
-36.85
-108.25
-174.08
-219.58
-235.25
-219.18
-176.62
-117.42
-52.61
8.8
61.66
104.65
138.75
165.82
188.12
208.52
230.22
255.25
282.89
308.9
326.23
327.33
307.35
266.99
214.26
163.24
127.42
112.66
115.47
127.14
139.33
147.46
151.03
151.76
151.24
149.59
145.87
139.52
131.2
122.51
115.35
111.04
109.92
111.25
113.23
114.01
112.61
109.38
105.51
102.3
100.55
100.25
100.65
100.1
97.18
91.39
83.39
74.66
67.02
62.18
61.47
65.84
75.05
88.55
105.62
125.31
146.23
166.56
184.25
197.37
204.78
205.31
198.75
185.68
166.9
142.94
113.73
78.53
35.75
-9.5
-53.14
-90.94
-119.34
-136.34
-142.1
-138.8
-129.71
-117.98
-105.28
-92.46
-78.82
-63.54
-46.57
-29.29
-14.18
-4.21
-1.61
-7.16
-20.8
-40.68
-63.15
-82.66
-92.44
-86.44
-62.48
-24.11
19.84
57.82
80.15
82.09
64.75
33.16
-6.81
-52.2
-103.37
-162.48
-230.87
-306.84
-385.89
-460.44
-521.3
-559.11
-569.43
-553.45
-517.13
-468.19
-413.56
-359.5
-308.86
-261.22
-212.26
-160.95
-108.58
-57.67
-9.64
35.2
73.97
104.76
127.98
149.62
171.12
190.45
202.37
201.65
183.98
143.32
78
-6.81
-95.5
-176.4
-242.07
-290.63
-323.01
-316.39
-260.23
-163.6
-80.63
-25.57
3.68
24.44
47.71
83
136.52
205.13
279.65
348.26
404.74
441.09
453.97
446.4
428.31
410.12
395.01
378.81
354.09
318.92
272.9
221.31
173.61
140.86
128.44
133.33
144.62
150.39
145.37
128.12
101.81
70.79
38.4
3.07
-37.62
-88.09
-149.57
-217.46
-284.6
-342.69
-384.62
-405.37
-405.05
-383.76
-346.55
-299.08
-245.31
-187.25
-124.44
-55.88
28.45
107.22
174.14
219.85
239.28
234.81
215.75
193.9
177.67
168.22
157.69
138.85
104.2
51.87
-14.04
-86.09
-156.8
-220.81
-274.76
-317.4
-344.27
-352.73
-341.52
-311.8
-267.51
-214.33
-158.13
-102.83
-50.01
3.72
61.73
125.47
191.82
252.31
294.91
308.15
285.62
228.76
148.75
62.29
-12.64
-61.5
-76.3
-56.4
-7.25
61.3
136.81
206.25
257.24
280.26
270.65
229.89
165.1
87.49
9.16
-59.66
-112.23
-145.91
-161.76
-163.7
-158.11
-153.04
-156.8
-176.58
-215.75
-271.95
-336.98
-398.62
-444.58
-466.46
-462.08
-434.83
-392.03
-341.07
-286.72
-230.37
-171.13
-107.87
-40.92
23.76
81.01
124.43
149.16
154.24
143.58
125.2
108.64
101.29
105.98
120.97
140.94
160.34
175.69
186.23
193.1
197.89
201.6
204.77
208.72
215.58
228.26
248.78
276.41
306.45
330.89
340.98
330.65
299.36
252.02
197.08
142.67
93.32
49.16
7.62
-33.31
-72.36
-104.68
-124.29
-127.01
-113.47
-89.22
-61.99
-38.23
-20.61
-7.5
5.42
22.87
49.03
85.32
129.95
178.88
226.52
266.76
294.13
304.87
297.28
272.72
232.56
178.02
112.21
41.6
-23.02
-68.19
-82.18
-60.42
-6.62
64.73
133.33
181.67
200.27
190.27
161.51
126.94
86.47
44.65
7.29
-21.42
-39.3
-46.78
-44.13
-31.28
-9.02
16.96
41.05
56.42
57.88
45.28
20.14
-15.86
-59.04
-102.91
-139.6
-159.04
-156.13
-143.03
-126.37
-112.62
-107.73
-115.74
-130.93
-148.16
-160.3
-163.8
-158.74
-146.23
-129.59
-112.21
-96.33
-83.29
-75.23
-73.43
-81.5
-101.55
-131.13
-165.28
-197.61
-222.14
-234.77
-234.54
-222.38
-204.79
-189.1
-180.41
-181.82
-194.53
-218.83
-254.93
-303.78
-343.94
-360.25
-346.99
-308.23
-251.3
-181.16
-101.42
-17.71
61.63
128.44
174.5
197.38
201.03
193.07
180.79
168.46
157.4
147.78
140.34
133.8
127.17
119.91
111.96
103.36
93.86
83.51
72.99
63.73
55.56
48.07
40.72
33.21
25.18
16.37
6.8
-2.95
-11.71
-18.94
-24.18
-27.17
-27.74
-26.46
-23.34
-18.62
-12.77
-6.24
-0.03
4.85
7.26
6.18
0.96
-8.7
-22.19
-38.18
-54.75
-69.97
-81.69
-88.08
-87.8
-80.23
-65.35
-43.91
-17.32
12.63
42.84
70.92
95.07
114.13
127.51
135.31
138.11
136.68
131.99
125.02
116.86
108.29
99.85
91.82
84.28
77.22
70.54
64.12
57.86
51.92
46.4
41.38
36.87
32.77
28.98
25.4
21.96
18.64
15.57
12.84
10.53
8.64
7
5.52
4.07
2.62
1.2
0.04
-0.74
-0.95
-0.21
0.91
1.93
2.5
2.52
2.15
1.9
2.32
4.02
7.15
11.31
15.75
19.6
22.28
23.57
24.11
24.09
23.92
23.64
22.51
19.33
13.18
3.85
-7.68
-19
-27.01
-28.91
-23.52
-12.17
1.73
13.21
18.46
14.71
1.7
-19.6
-45.24
-69.15
-84.49
-86.03
-72.49
-47.72
-19.76
2.24
12.08
9.32
-1.51
-13.85
-22.7
-26.8
-28.01
-29.37
-32.27
-35.76
-36.62
-31.71
-19.4
-0.27
23.21
46.72
64.93
72.56
66.13
46.18
18.33
-8.08
-23.58
-22.64
-6.21
19
43.22
57.72
57.81
43.49
18.17
-13.17
-44.8
-70.75
-85.42
-85.79
-73.58
-55.28
-39.08
-30.35
-28.84
-28.88
-23.11
-6.89
18.43
45.96
66.06
72.64
66.44
53.92
44.53
41.93
44.73
49.69
52.35
48.24
35.68
16.35
-5.82
-26.13
-41.58
-52.12
-60.9
-71.59
-86.16
-102.65
-115.24
-116.91
-102.74
-72.86
-29.87
19.53
68.71
112.21
145.59
164.68
165.16
143.59
98.74
33.17
-45.91
-125.75
-188.61
-221.3
-222.31
-200.16
-165.99
-128.95
-95.94
-73.9
-63.32
-63.4
-71.72
-83.44
-92.14
-91.26
-74.86
-45.07
-10.92
16.35
28.28
23.23
8.69
-7.82
-19.6
-22.41
-15.33
0.97
25.02
52.45
78.46
99.26
112.87
119.91
122.2
120.55
115.32
105.8
91.93
77
68.06
72.68
95.5
135.38
184.62
232.81
268.39
281.9
269.11
231.85
176.24
110.36
42.47
-26.17
-86.65
-129.7
-152.94
-164.27
-171.66
-178.09
-183.5
-184.17
-176.77
-157.72
-126.19
-84.84
-38.14
9.15
53.78
93.47
127.16
154.31
175.8
192.24
203.31
208.83
201.32
176.68
136.92
90.94
49.14
19.52
4.51
1.33
5.97
14.07
24.29
37.28
52.99
69.49
83.42
91.51
90.97
82.9
68.51
51.06
34.26
19.95
5.03
-15.56
-41.85
-73.72
-107.15
-140.51
-171.53
-197.4
-216.98
-233.56
-250.87
-271.13
-295.25
-319.36
-344.08
-371.07
-402.26
-416.98
-403.04
-358.95
-291.78
-231.13
-173.39
-116.06
-62.03
-9.51
36.32
68.82
86.32
92.14
91.41
91.66
93.53
98.39
111.41
138.34
179.95
231.13
281.53
319.14
337.64
332.02
304.87
264.89
220.81
176.41
131.54
84.59
35.24
-13.53
-62.67
-112.34
-160.49
-203.77
-238.33
-259.69
-263.72
-248.01
-199.28
-121.82
-36.33
33.25
75.09
92.56
97.49
100.57
106.46
115.82
121.86
118.03
101.98
76
44.4
12.84
-13.85
-33.46
-47.85
-63.73
-86.06
-113.7
-138.84
-150.94
-142.81
-114.18
-71.26
-23.97
17.3
46.87
64.29
72.39
73.61
67.33
50.14
22.6
-7.76
-30.58
-39.36
-35.6
-28.47
-23.17
-22.1
-24.15
-25.61
-22.66
-11.8
9.01
35.8
59.37
70.47
64.78
46.21
26.52
13.3
8.66
12.58
19.51
20.92
11.26
-11.61
-42.61
-72.65
-94.03
-104.24
-104.03
-96.24
-82.9
-63.71
-36.73
0.22
45.15
90.65
128.21
153.61
166.03
167.27
159.83
145.3
123.94
94.27
55.13
2.07
-57.61
-109.77
-143.12
-157.27
-162.57
-168.34
-178.8
-193.51
-209.13
-219
-218.46
-205.64
-184.93
-165.71
-157.47
-164.36
-180.75
-199.41
-213.49
-219.86
-218.79
-212.97
-202.94
-186.36
-159.02
-118.28
-65.77
-6.35
52.55
103.19
140.22
162.87
175.15
185.14
199.97
222.37
250.78
281.14
309.79
335.43
359.5
384.97
416.25
454.09
493.92
527.91
548.53
551.14
533.92
496.76
441.44
375.89
310.88
257.82
225.33
217.08
230.23
255.5
279.56
267.37
200.13
86.61
-40.36
-147.87
-220.72
-261.25
-279.44
-288.07
-293.56
-295.66
-294.02
-289.87
-287.06
-286.96
-287.14
-281.8
-266.06
-237.42
-195.81
-144.34
-86.26
-25.55
31.34
74.88
96.6
91.37
60.91
15.74
-38.96
-98.15
-159.08
-222.3
-286.1
-346.97
-401.81
-434.27
-431.68
-392.37
-325.5
-247.55
-173.71
-118.28
-76.91
-42.15
-6.67
32.72
76.31
124.65
175.24
224.35
267.62
302.23
324.54
330.42
314.59
265.27
186.22
96.99
23.87
-16.85
-23.88
-9.31
9.55
16.56
7.24
-11.36
-27.18
-28.68
-12.01
20.34
60.3
96.01
113
101.07
59.43
-4.96
-80.12
-156.63
-227.01
-276.94
-292.82
-273.54
-231.61
-182.16
-141.28
-104.45
-67.51
-27.97
15.47
64.52
116.95
166.34
202
215.15
206.58
182.79
154.16
128.44
107.64
89.07
64.58
29.64
-14.44
-60.57
-103.46
-139.18
-168.28
-188.5
-199.91
-203.45
-197.9
-179.51
-143.31
-90.74
-23.69
43.01
92.49
119.72
130.42
131.96
124.48
114.45
98.49
73.69
37.76
-7.76
-53.55
-87.25
-101.24
-96.37
-79.96
-66.18
-58.84
-56.95
-55.74
-50.69
-40.78
-27.75
-13.2
2.92
16.32
22.95
22.35
23.69
34.03
52.75
70.67
75.03
56.65
12.3
-49.85
-111.58
-150.57
-150.28
-107.34
-33.71
52.74
134.37
198.61
233.4
232.73
202.81
159.61
127.04
104.07
85.24
67.17
46.23
22.72
-1.73
-29.41
-60.26
-90.39
-115.18
-129.36
-132.86
-131.03
-131.34
-133.59
-133.76
-126.9
-110.1
-85.09
-53.36
-17.69
14.3
33.54
35.57
23.03
3.74
-10.97
-20.2
-24.37
-23.8
-17.75
-3.51
21.12
56.44
99.43
144.62
185.69
219.95
248.08
273.02
298.74
328.08
360.4
390.4
409.52
408.39
381.83
330.61
261.68
186.45
117.31
63.44
27.64
7.38
-3.16
-10.14
-18.89
-33.12
-54.02
-79.4
-103.19
-117.83
-114.42
-86.18
-32.38
38.75
111.47
168.2
195.95
190.55
153.47
93.17
21.89
-48.77
-111.77
-165.13
-209.54
-246.2
-276.11
-305.54
-338.81
-375.8
-412.62
-444.96
-470.21
-487.15
-495.18
-494.66
-494.37
-501.86
-519.87
-546.16
-576.56
-605.9
-627.26
-632.46
-572.55
-430.92
-234.41
-36.45
120.96
224.05
279.66
302.77
308.12
306.19
295.88
276.41
251.64
229.79
218.01
217.83
225.42
234.1
236.76
220.82
182.08
128.56
76.76
43.22
36.37
54.72
89.97
131.97
168.99
196.65
215.45
227.15
232.22
227.33
207.65
171.79
124.92
76.33
38.08
20.39
27.13
56.41
100.38
145.21
176.54
187.49
180.29
161.33
139.41
110
68.38
14.92
-43.43
-94.43
-124.53
-127.95
-110.45
-86.49
-72.63
-78.24
-103.96
-143.85
-188.87
-230.12
-260.73
-275.52
-270.54
-244.44
-198.66
-139.39
-76.35
-19.52
24.25
52.04
64.31
63.88
54.46
40.4
24.81
8.44
-9.96
-32.01
-57.1
-80.7
-94.86
-91.57
-66.43
-21.5
34.98
91.45
137.36
165.77
174.19
164.13
140.64
112.3
90.19
84.77
100.99
135.94
179.43
217.84
239.56
239.16
218.51
184.23
142.63
95.28
40.89
-21.15
-87.38
-150.36
-200.69
-230.89
-237.12
-220.35
-187.02
-144.42
-98.95
-56.43
-23.84
-8.26
-13.55
-35.95
-64.03
-84.61
-85.4
-59.52
-7.63
61.84
135.02
190.75
211.39
202.59
172.66
129.75
79.51
33.73
4.35
-1.48
15.39
47.2
81.96
105.37
109.54
94.79
66.84
30.59
-11.79
-59.29
-107.74
-148.8
-174.71
-177.97
-155.2
-110.99
-59.13
-17.19
1.05
-8.72
-41.98
-91.84
-148.93
-203.35
-246.09
-270.71
-272.54
-248.67
-199.06
-119.31
-22.99
65.46
125.51
151.55
150.35
135.89
119.18
108.27
108.43
119.37
138.52
160.91
179.9
187.39
174.6
140.53
94.95
53.93
28.54
21.03
24.14
29.53
30.38
22.58
5
-21.99
-55.16
-91.94
-128.5
-159.07
-178.67
-187.34
-190.44
-195.36
-207.04
-223.05
-235.25
-233.41
-209.26
-161.11
-95.52
-23.65
46.65
102.68
138.62
158.53
163.11
153.13
132.41
108.86
93.09
94.73
116.2
152.54
192.01
220.19
226.01
205.57
161.86
102.77
38.57
-21.67
-68.49
-93.59
-92.48
-66.87
-24.52
22.15
59.91
78.93
73.7
46.55
5.97
-37.41
-76.29
-108.1
-134.77
-160.44
-188.22
-220.33
-253.96
-281.54
-284.35
-250.73
-184.82
-106.32
-43.13
-1.24
22.83
37.71
52.65
74.16
103.6
139.5
180.1
224.93
274.06
322.94
363.49
386.31
384.07
353.27
297.16
224.98
148.34
76.92
13.59
-42.78
-93.32
-136.38
-168.65
-187.32
-193.36
-192.67
-194.24
-207.35
-236.33
-278.24
-324.01
-362.88
-385.75
-387.35
-366.41
-324.74
-266.75
-197.93
-123.32
-46.58
29.99
104.43
173.31
230.36
266.57
273.07
246.05
190.75
122.22
61.49
28.66
35.99
83.68
159.8
244.78
317.74
362.27
369.72
339.52
277.59
194.11
101.71
13.98
-56.05
-98.06
-107.47
-87.93
-51.44
-15.35
2.95
-7.83
-49.3
-113.8
-188.73
-262.05
-325.72
-376.12
-411.6
-429.86
-427.45
-401.33
-351.7
-283.49
-205.35
-126.29
-52.72
12.61
69.4
117.54
156
183.91
202.86
218.22
237.82
268.39
311.6
362.41
410.87
446.11
460.75
453.25
427.3
388.92
343.41
293.49
239.3
179.39
112.5
39.1
-37.4
-110.53
-172.57
-216.96
-241.22
-248.45
-246.71
-245.92
-253.68
-272.11
-296.73
-318.64
-328.52
-320.3
-292.84
-249.02
-193.38
-130.58
-65.73
-6.09
38.33
56.82
42.55
-2.37
-64.87
-123.94
-157.72
-151.31
-101.58
-17.19
85.45
187.26
270.73
322.65
335.74
310.15
254.2
183.24
115.78
67.61
46.84
51.51
71.68
94.3
108.51
108.99
96.06
73.38
44.96
12.84
-23.29
-64.72
-111.06
-158.28
-198.43
-221.42
-218.47
-185.5
-125.39
-47.95
32.35
99.92
142.37
154.05
137.59
103.27
66.12
41.41
39.99
65.05
111.4
167.91
221.66
262.14
283.76
285.77
270.37
240.55
198.48
145.12
81.09
8.57
-67.11
-137.5
-193.43
-228.66
-243.55
-245.69
-246.81
-257.69
-283.41
-322.01
-366.38
-408.35
-441.9
-464.2
-473.83
-468.76
-446.03
-403.13
-340.76
-263.98
-181.29
-102.41
-35.91
12.64
41.89
54.83
58.2
60.66
71.32
97.74
142.9
203.32
268.56
324.79
358.63
361.11
329.45
268.51
190.18
109.66
41.16
-6.93
-31.13
-31.8
-12.53
19.5
55.25
85.81
103.56
103.72
83.14
44
-8.27
-61.86
-106.99
-142.01
-164.23
-169.57
-153.15
-114.77
-56.53
17.04
97.24
171.95
229.55
254.65
238.37
201.65
161.14
123.21
95.35
82.4
85.05
100.76
125.32
152.93
177.06
187.33
176.18
142.51
90.92
30.28
-30.54
-78.94
-111.34
-128.49
-137.27
-145.22
-157.47
-177.17
-204.81
-237.46
-268.37
-289.04
-290.92
-270.98
-231.16
-177.3
-117.48
-58.86
-5.43
42.35
85.49
125.39
161.28
191.32
214.07
229.23
237.97
242.07
242.78
239.5
230.62
214.04
189.14
157.72
123.35
89.83
59.25
31.12
2.62
-29.22
-65.74
-105.77
-146.6
-185.84
-222.57
-257.06
-288.93
-315.63
-332.2
-332.93
-314.27
-277.19
-227.25
-172.22
-118.7
-69.73
-25.23
15.26
49.52
71.96
76.17
59.72
27.7
-7.35
-29.74
-27.14
4.48
60.11
129.4
202.05
271.25
333.62
386.21
423.43
436.77
418.23
365.47
285.17
192.19
104.11
34.42
-12.36
-41.12
-62.33
-86.25
-118.79
-160.52
-208.44
-258.59
-307.55
-352.02
-388.02
-410.76
-415.59
-399.97
-365
-315.49
-258.49
-200.81
-146.95
-98.41
-54.47
-14
23.13
55.95
83.62
106.99
129.58
156.96
194.6
245.17
305.97
368.81
422.17
455.41
462.42
443.67
405.36
356.14
303.66
252.06
201.86
151.94
102.25
55.03
13.66
-19.76
-46.78
-72.47
-103.31
-143.93
-195.18
-254.47
-317.62
-380.48
-439.33
-490.07
-527.5
-546.2
-542.72
-517.72
-476.58
-427.41
-377.61
-331.07
-287.54
-243.98
-197.48
-147.31
-95.03
-43.33
5.98
52.97
99.18
146.46
195.98
247.74
300.71
353.01
401.46
441.12
465.57
468.58
446.93
402.92
344.64
283.42
229.45
187.87
157.19
130.94
101.68
64.46
18.49
-33.41
-86.65
-136.96
-181.49
-219.08
-249.61
-273.13
-289.11
-296.35
-293.46
-279.56
-255.15
-221.99
-182.04
-136.5
-85.71
-30.69
25.31
76.01
114.23
135.52
141.46
140.3
144.3
164.53
205.96
265.68
333.86
397.18
443.25
463.58
455.05
419.69
363.44
294.61
222.19
153.98
95.04
47.15
8.85
-23.49
-54.32
-87.37
-124.71
-166.33
-210.73
-255.97
-300.89
-345.33
-388.99
-430.16
-464.9
-487.69
-493.6
-480.67
-451
-409.96
-364.11
-318.36
-274.62
-232.34
-190.07
-147.43
-105.59
-66.28
-30.22
3.83
38.71
77.22
120.75
169.04
220.54
272.31
319.95
357.35
378.08
377.93
357.81
324.87
290.36
264.86
252.86
250.56
247.63
232.99
200.59
152.1
94.91
36.95
-17.51
-68.74
-118.75
-166.99
-207.74
-231.56
-229.89
-200.45
-149.65
-90.8
-38.73
-4.2
9.03
3.89
-12.83
-33.4
-50.62
-57.74
-48.36
-17.42
36.16
107.28
184.22
251.58
294.87
305.24
281.89
231.89
167.58
103.18
51.42
20.31
11
17.38
27.94
30.28
16.06
-15.64
-58.41
-102.37
-139.64
-168.35
-192.72
-219.11
-250.82
-284.78
-312.28
-323.33
-311.58
-277.08
-225.55
-164.99
-102.59
-43.58
7.87
47.29
70.46
75.48
65.22
48.17
36.61
42.41
72.27
124.92
191.38
257.96
309.87
335.16
327.52
287.92
224.72
151.69
84.23
34.94
9.97
7.23
17.72
29.11
30.47
16.03
-13.45
-51.93
-91.52
-125.84
-151.73
-168.83
-177.23
-175.52
-160.36
-128.64
-80.61
-22.27
35.45
80.81
106.25
111.02
99.89
79.1
52.44
20.5
-16.57
-55.05
-85.67
-95.6
-74.56
-21.11
54.7
133.88
195.55
224.43
215.72
175.49
117.41
57.98
11.25
-14.8
-20.04
-11.63
-1.37
-0.85
-16.87
-48.63
-88.66
-126.84
-155.67
-174
-186.96
-201.96
-223.32
-248.9
-270.55
-278.41
-266
-233.44
-187.08
-135.74
-86.55
-42.86
-5.15
26.26
49.5
61.69
61.66
52.69
43.17
44.56
66.71
113.24
179.19
252.09
315.58
354.42
358.77
326.88
265.63
188.77
113.56
56.22
27.22
27.97
50.52
80.57
102.68
105.6
85.53
45.71
-6.56
-63.94
-121.49
-176.69
-227.05
-268.2
-293.9
-298.27
-278.8
-237.86
-182.58
-122.57
-66.61
-19.98
16.27
43.91
65.05
80.18
88.1
87.64
80.51
73.03
75.17
96.38
140.29
201.06
264
311.28
329.18
313.95
272.69
219.21
167.1
124.55
92.91
68.66
47.53
26.42
3.76
-21.81
-52.26
-89.37
-132.9
-179.69
-224.84
-262.98
-291.36
-310.6
-322.93
-329
-326.3
-310.36
-277.86
-229.52
-169.02
-103.42
-41.13
10.49
47.11
68.56
78.27
81.64
84.05
91.33
106.34
128.71
155.89
185.89
219.43
259.53
309.2
353.04
374.45
360.12
306.44
220.01
113.87
4.24
-92.04
-161.01
-195.06
-192.48
-159.36
-108.02
-53.64
-10.28
12.96
13.56
-5.55
-37.94
-74.44
-107.12
-131.36
-146.35
-153.97
-155.14
-149.1
-134.56
-110.92
-78.31
-39.26
1.53
38.61
67.94
85.9
93.96
95.43
92.5
85.03
71.24
49.69
21.6
-8.74
-35.4
-53.41
-61.92
-63.42
-62.06
-61.16
-62.28
-65.2
-69.12
-73.62
-78.84
-85.41
-91.57
-96.12
-97.04
-92.77
-82.91
-68.52
-51.53
-33.93
-17.68
-4.44
3.9
7.19
6.36
4.35
5.78
15.01
33.99
60.77
89.69
113.44
126.86
127.67
116.98
97.84
73.35
46.4
17.73
-10.84
-36.25
-54.79
-64.51
-65.26
-58.63
-47.73
-36.14
-26.75
-20.68
-17.63
-16.73
-18.72
-24.66
-35.07
-50.1
-69.23
-90.5
-110.24
-123.69
-120.56
-97.79
-59.45
-14.51
25.36
49.54
53.51
37.66
7.47
-28.26
-61.01
-81.95
-82.39
-58
-11.47
48.3
108.59
156.82
183.96
186.68
162.74
122.01
82.45
58.02
50.7
52.4
53.58
49.45
40.9
32.65
30.08
34.63
40.26
39.52
27.71
5.16
-23.72
-52.91
-77.19
-93.19
-98.37
-94.81
-88.09
-84.03
-84.64
-87.4
-87.11
-79.5
-63.2
-41.4
-21
-8.52
-6.81
-13.88
-23.67
-29.66
-26.72
-11.88
14.37
47.67
81.11
106.76
119.99
120.42
111.25
97.29
83.21
71.54
62.42
55.22
48.61
42.6
36.99
30.89
22.67
10.96
-5.42
-26.95
-52.74
-79.29
-101.15
-113.94
-116.2
-110.34
-101.36
-95.38
-94.68
-100.15
-109.3
-114.71
-111.17
-97.24
-79.39
-61.19
-44.61
-30.08
-19.82
-15.38
-16.21
-19.34
-18.89
-8.45
16.27
55
101.09
144.34
176.46
194.01
198.27
193.87
185.51
170.15
147.77
120.36
92.29
69.71
57.84
58.03
66.92
78.63
83.89
76.15
51.93
12.83
-34.47
-81.01
-119.75
-145.78
-158.44
-161.72
-156.76
-148.3
-140.87
-135.16
-127.61
-113.81
-92.38
-66.74
-43.6
-30.46
-29.79
-38.81
-50.89
-57.75
-52.49
-31.58
4.21
50.63
101.97
146.81
175.11
183.05
174.77
158.35
140.93
126.01
114.2
107.02
103.03
101.96
102
99.8
91.23
73.38
45.86
10.99
-26.85
-62.26
-90.55
-111.25
-126.86
-141.13
-157.46
-177.85
-202.37
-229.39
-256.51
-270.56
-262.11
-228.68
-175.25
-110.62
-43.99
15.83
60.44
83
83
65.14
38.99
17.1
10.75
26.21
62.92
114.51
168.52
208.4
220.18
199.9
154.4
96.1
37.68
-11.54
-46.51
-65.75
-69.43
-59.36
-39.52
-12.07
18.77
46.84
65.42
69.9
59.42
37.86
11.69
-12.68
-31.62
-44.84
-54.65
-64.56
-76.24
-88.07
-95.57
-94.66
-83.96
-65.61
-44.39
-25.32
-11.88
-5.61
-6.91
-13.79
-23.4
-31.81
-34.54
-27.84
-10.19
16.77
48.47
76.88
95.62
102.47
99.67
91.71
82.65
74.24
66.19
57.56
48.35
40.28
35.2
34.44
36.58
38.99
38.77
33.69
22.72
6.12
-14.38
-36.65
-57.68
-74.29
-84.31
-87.25
-84.41
-78.09
-70.65
-62.79
-54.33
-44.49
-33.06
-20.96
-10.43
-4.2
-3.94
-8.86
-14.79
-15.66
-5.87
17.16
51.64
91.78
129.71
157.78
168.2
158.53
129.5
84.57
29.72
-26.84
-76.15
-110.51
-125.98
-123.46
-107.72
-85.78
-63.92
-46.74
-35.07
-28.72
-26.78
-27.63
-28.8
-27.28
-21.34
-11.68
-1.16
5.25
3.81
-5.62
-19.64
-32.69
-39.95
-39.55
-32.87
-23.42
-14.99
-10.25
-9.88
-12.69
-15.68
-14.94
-6.83
10.5
35.57
63.56
87.31
101
102.4
93.44
78.64
62.68
48.45
36.62
26.7
18.68
13.6
12.59
15.36
19.66
21.65
18.12
7.95
-6.89
-22.46
-34.88
-42.1
-44.68
-44.73
-44.15
-43.3
-40.78
-34.14
-21.18
-1.55
22.42
46.1
63.59
68.9
59.79
38.53
10.91
-15.93
-36.37
-47.14
-46.74
-35.05
-11.57
22.37
61.54
96.46
116.06
112.27
84.88
42.61
-1.52
-34.67
-51.79
-55.78
-54
-50.33
-44.96
-36.09
-23.49
-11.46
-7.53
-17.72
-42.67
-76.52
-109.46
-132.86
-142.81
-140.25
-126.85
-109.08
-91.52
-76.03
-63.12
-53.11
-46.45
-42.23
-37.04
-26.92
-7.92
21.39
58.15
95.65
125.9
142.71
141.82
127.35
106.67
86.12
68.83
54.2
39.66
23.44
6.58
-7.98
-15.78
-13.74
-0.98
21.15
48.4
74.28
91.1
90.1
68.22
29.63
-15.31
-52.69
-69.75
-60.88
-29.91
11.44
48.24
69.21
69.62
51
20.62
-10.87
-33.47
-40.1
-28.68
-3.15
27.54
51.79
58.12
39.9
-1.54
-58.19
-116.21
-160.37
-178.85
-167.19
-128.85
-74.82
-19.24
25.12
47.02
40.53
6.87
-47.13
-106.84
-153.65
-174.11
-168.77
-138.58
-87.07
-19.57
56.36
129.05
187.09
226.45
249.88
265.75
283.03
295.47
296.55
279.74
254.88
219.06
170.47
105.41
31
-40.57
-97.96
-134.53
-153.29
-163.12
-175.06
-193.62
-217.85
-242.13
-262.28
-277.99
-282.58
-275.01
-257.81
-235.36
-207.55
-171.63
-124.17
-70.09
-10.45
52.03
111.46
164.46
210.22
251.59
285.38
310.65
326.51
334.99
339.52
339.67
333.75
317.72
286.66
236.16
167.22
83.41
-8.37
-101.62
-195.45
-288.23
-375.77
-450.76
-505.71
-534.75
-540.99
-533.6
-504.8
-455.61
-390.11
-311.94
-222.51
-132.56
-40.73
49.43
133.6
211.07
277.1
330.33
371.62
401.71
420.85
431.01
433.07
428.05
415.52
391.24
351.68
295.36
223.65
140.78
52.99
-34.99
-119.32
-195.76
-258.62
-299.94
-313.72
-300.59
-268.73
-231.74
-203.61
-188.32
-187.12
-194.73
-200.69
-196.57
-180.04
-152.08
-118.02
-75.64
-23.05
38.12
103.8
169.24
230.29
276.6
300.95
298.33
268.16
213.13
139.82
59.59
-13.97
-69.78
-103.51
-116.54
-114.08
-99.13
-73.14
-37.33
5.4
48.9
83.75
99.28
89.09
47.4
-17.83
-86.79
-137.64
-159.98
-156.4
-132.48
-94.24
-44.6
10.86
67.54
121.16
168.18
206.01
232.87
246.1
240.53
210.95
155.17
78.89
-5.7
-83.7
-142.09
-172.53
-172.58
-146.21
-101.46
-48.65
2.28
42.04
62.94
60.02
33.11
-12.46
-67.43
-120.83
-162.81
-186.73
-190.62
-176.94
-151.4
-120.17
-86.45
-49.69
-6.74
45.07
104.19
163.08
209.49
229.82
215.34
167.56
98.79
27.77
-26.74
-52.8
-47.66
-17.2
26.03
67.55
95.84
104.25
90.73
57.08
7.3
-53.2
-110.27
-149.42
-164.6
-159.14
-140.47
-119.09
-98.43
-80.13
-63.43
-44.91
-20.52
13.35
58.25
112.43
170.18
221.18
251.91
251.3
216.11
152.19
73.79
0.34
-51.52
-73.99
-71.75
-59.44
-53.27
-63.11
-90.76
-131.58
-177.41
-222.29
-255.71
-269.59
-263.91
-245.38
-219.31
-186.66
-151.52
-111.83
-69.31
-27.69
9.42
41.67
71.61
102.75
137.39
175.54
216.24
256.79
294.27
323.48
337.73
330.71
299.36
245.4
175.99
102.2
33.16
-26.16
-76.81
-121.32
-159.43
-186.55
-197.27
-189.15
-166.14
-139.59
-123.36
-128.9
-155.52
-189.74
-209.48
-199.15
-158.87
-102.57
-50.11
-8.71
21.42
45.65
70.89
101.19
132.05
158.66
178.06
191.18
203.79
221.78
247.63
276.74
296.74
292.11
253.67
181.81
86.19
-16.34
-108.44
-176.66
-214.62
-224.8
-216.02
-197.03
-175.65
-159.28
-153.2
-161.05
-183.38
-211.2
-231.23
-241.74
-238.91
-212.58
-161.1
-89.71
-8.28
72.96
146.17
204.7
245.2
270.41
288.09
304.03
322.3
343.5
364.44
378.05
372.57
338.31
274.22
189.71
94.53
-2.72
-96.55
-183.1
-259.37
-325.52
-381.3
-424.86
-452.21
-467.82
-480.72
-499.47
-525.66
-534.16
-502.17
-421.8
-325.9
-226.42
-129.85
-36.04
51.28
131.37
205.73
272.5
327.7
366.89
390.69
398.24
390.85
372.8
351.85
335.65
326.46
322.29
318.53
312.8
300.36
277.48
242.93
199.28
150.7
98.98
43.57
-17.5
-83.83
-154.48
-225.04
-288.25
-335.53
-360.37
-361.21
-340.86
-304.95
-259.05
-210.01
-164.37
-129.02
-109.32
-106.76
-116.98
-129.9
-133.45
-117.83
-80.54
-25.51
37.48
97.22
145.29
178.81
199.68
211.75
219.01
224.17
230.52
239.47
250.4
260.77
267.78
268.96
262.21
247.41
215.03
167.07
115.23
72.37
42.3
19.56
-3.37
-36.06
-82.73
-142.17
-207.28
-270.63
-320.83
-349.59
-352.4
-329.86
-289.23
-242.8
-205
-185.69
-187.14
-202.53
-218.36
-219.4
-194.36
-140.15
-61.43
31.8
129.05
221.05
299.41
356.34
384.43
379.61
343.47
285.1
218.65
159.12
117.39
95.97
91.01
94.01
97.62
97.72
93.36
82.83
61.72
25.34
-29.53
-98.53
-172.74
-239.77
-289.95
-319.69
-334.16
-344.66
-361.07
-389.95
-412.2
-408.54
-367.65
-293.15
-196.74
-92.25
1.8
83.98
152.68
208.45
252.18
288.81
317.54
341.07
361.82
380.01
396.54
396.99
371.9
319.11
247.27
167.74
91.06
25.23
-34.31
-89.92
-143.75
-197.32
-254.12
-308.09
-354.35
-387.27
-402.7
-399.8
-379.28
-331.89
-262.96
-193.49
-142.12
-115.28
-104.65
-96.45
-80.72
-55.49
-21.43
18
57.04
95.7
135.09
176.46
220.35
259.32
289.75
300.59
304.7
297.27
279.21
253.93
227.23
206
195.96
191.56
188.11
178.03
151.19
106.76
52.57
1.35
-35.84
-55.13
-59.91
-56.82
-52.21
-51.17
-52.84
-53.9
-51.6
-46.05
-39.66
-36.19
-38.17
-46.54
-61.92
-82.59
-104.51
-122.21
-130.31
-126.25
-111.21
-88.6
-63.01
-39.92
-25.49
-22.58
-34.05
-59.98
-97.27
-139.33
-176.48
-198.96
-190.36
-147.56
-85.32
-25.94
16.89
42.46
57.5
68.93
79.97
90.3
96.62
97.43
94.23
90.02
85.74
79.67
69.58
55.32
39.53
25.31
15.7
12.6
16.02
23.92
33.06
40.72
45.14
45.17
39.45
27.42
10.27
-8.58
-24.61
-34.33
-36.6
-32.93
-26.54
-21.18
-19.28
-21.42
-27.02
-34.54
-42.49
-49.8
-56.12
-61.76
-67.49
-73.97
-80.91
-86.41
-85.56
-72.06
-40.99
8
69.66
134.8
192.86
235.58
253.52
243.41
208.64
157.15
97.92
38.76
-14.69
-57.87
-85.27
-95.88
-93.35
-83.15
-69.06
-53.35
-40.03
-29.98
-24.6
-27.01
-41.79
-71.62
-116.09
-167.93
-217.75
-255.27
-271.5
-260.92
-225.76
-176.18
-124.87
-81.27
-48.23
-22.67
1.76
31.72
72.68
124.19
179.74
230.41
268.64
290.04
293.22
279.17
239.06
176.5
106.49
44.68
-2.83
-38.91
-69.65
-96.4
-117.97
-132.91
-136.04
-125.64
-103.91
-74.94
-42.46
-8.11
28.37
67.57
109.77
155.54
201.53
239.81
261.13
258.56
231.05
182.63
118.95
45.07
-33.89
-113.89
-190.86
-258.02
-306.93
-328.83
-318.89
-279.21
-217.52
-142.59
-62.25
17.19
91.94
151.37
187.26
200.85
201.27
197.75
194.2
192.95
186.38
167.98
134.61
89.33
38.05
-14.78
-67.12
-115.03
-153.14
-175.08
-175.54
-153.54
-111.06
-54.42
5.16
53.9
79.78
74.69
36.76
-31.48
-122.22
-220.28
-306.89
-365.82
-388.72
-375.93
-336.5
-283.23
-221.26
-163.89
-124.09
-105.3
-98.99
-92.15
-73.92
-43.02
0.93
50.87
99.17
142.24
180.57
218.18
252.6
284.02
301.22
320.29
333.86
335.3
321.85
294.1
255.28
209.86
163.77
122.44
92.43
73.49
59.81
50.21
44.84
43.17
41.49
33.97
14.5
-17.74
-60.94
-111.99
-163.29
-206.53
-235.09
-246.33
-241.13
-222.75
-189.63
-146.08
-97.67
-50.19
-9.47
20.64
38.54
45
39.21
25.7
11.89
5.25
7.95
16.31
25.68
35.46
45.97
59.19
77.43
100.29
124.32
144.12
150.17
138.55
111.07
73.6
35.88
8.39
-2.65
6.37
30.2
55.43
68.64
62.27
34.88
-6.4
-56.94
-112.68
-169.85
-225.39
-275.28
-314
-328.66
-313.1
-268.15
-201.79
-125.22
-48.8
20.52
81.08
135.12
184.54
226.01
253.39
260.39
244.99
210.56
162.8
107.56
49.68
-6.88
-59.11
-101.29
-126.24
-127.59
-103.51
-60.28
-10.25
32.93
59.02
62.76
45.77
13.64
-28.48
-71.78
-108.28
-133.48
-145.12
-140.25
-116.19
-71.91
-12.19
51.5
104.44
132.48
128.61
95.61
47.46
-5.38
-53.26
-90.85
-118.21
-138.96
-158.31
-178.69
-198.21
-211.75
-214.08
-201.38
-173.64
-134.15
-85.15
-32.3
20.11
69.51
113.64
148.59
170.06
175.4
167.06
154.03
148.85
163.07
200.18
253.02
305.76
341.02
347.17
322.55
274.57
214.45
152.37
92.52
33.49
-28.92
-97.27
-169.7
-239.48
-297.27
-334.97
-347.75
-336.79
-307.29
-266.12
-218.97
-168.26
-113.58
-53.78
6.84
65.67
115.64
151.08
171.37
182.28
193.43
212.85
241.78
273.01
294.13
292.84
263.87
211.25
145.96
80.28
21.87
-29.01
-78.03
-131.84
-193.7
-260.06
-321.5
-366.46
-386.03
-377.7
-345.61
-297.87
-242.31
-183.83
-123.88
-62.72
-2.36
52.51
96.52
127.29
147.95
165.86
188.35
217.81
250.04
276.4
288.72
284.02
265.22
238.53
208.01
174
133.78
84.69
27.09
-34.7
-93.87
-143.7
-178.88
-197.63
-198.89
-183.12
-152.97
-114.61
-77.41
-51.54
-43.98
-54.94
-80.52
-111.9
-140.59
-161.45
-173.18
-176.62
-172.46
-159.62
-135.34
-100.3
-56.43
-8.15
39.49
83.53
124.51
165.62
200.06
238.4
274.49
301.65
315.49
317.35
314.33
315.47
326.3
345.51
364.58
370.85
356.29
320.55
270.71
216.96
167.33
120.03
82.77
52.26
26.01
2.83
-17.64
-35.93
-54.13
-76.76
-108.5
-151.49
-203.73
-257.02
-301.71
-325.99
-318.85
-275.18
-200.35
-108.9
-21.03
44.61
77.45
70.83
28.22
-37.5
-110.25
-177.74
-233.24
-277.43
-313.3
-343.46
-378.01
-424.43
-483.75
-551.76
-621.98
-685.43
-734.98
-762.71
-715.97
-576.63
-375.23
-170.57
-7.43
92.86
153.47
194.25
228.48
263.61
294.68
318.14
337.49
360.87
388.28
414.42
428.58
426.47
411.11
383.19
345.47
309.2
275.93
246.28
221.39
199.45
179.94
162.82
140.4
108.61
66.89
17.86
-31.66
-70.06
-89.33
-88.3
-73.2
-54.95
-41.21
-34.35
-32.11
-29.75
-23.42
-13.4
-2.32
6.82
10.96
9.7
3.51
-4.95
-12.75
-18.13
-22.01
-26.79
-34.92
-47.96
-62.99
-79.71
-97.45
-113.91
-125.19
-126.62
-114.27
-86.69
-46.9
-1.75
39.35
68.99
84.68
89.35
89.45
91.36
97.67
105.76
109.1
100.55
76.93
40.89
-0.6
-39.42
-69.39
-87.23
-92.21
-84.48
-65.2
-37.19
-6.13
19.26
30.36
22.62
-1.6
-34.14
-64.7
-85.85
-96.4
-97.82
-93.92
-87.9
-81.52
-75.47
-70.31
-66.34
-62.7
-56.75
-44.97
-25.22
2.16
32.11
58.37
75.62
81.48
76.63
64.16
48.29
32.78
20.72
14.74
16.89
27.61
44.63
62.44
73.32
70.22
49.58
14.54
-25
-55.5
-65.18
-48.86
-9.93
41.34
91.89
130.05
148.7
145.93
124.15
88.49
45.6
2.59
-33.8
-58.27
-68.72
-66.67
-56.04
-41.34
-26.73
-15.77
-11.81
-16.3
-28.24
-43.45
-54.86
-55.1
-40
-11
24.77
57.26
77.22
81.45
73.03
59.23
47.22
40.7
39.12
39.76
40.45
41.39
44.3
49.69
55.74
58.07
52.07
35.61
11.05
-15.93
-38.89
-53.92
-61.2
-62.5
-58.75
-48.33
-28.69
0.65
34.56
63.45
77.07
69.29
42.61
6.81
-25.5
-44.55
-46.82
-35.99
-18.64
2.38
22.48
40.2
54.34
65.6
73.02
75.26
70.14
57.37
38.16
14.03
-13.35
-43.46
-76.93
-115.6
-150.99
-178.18
-194.4
-199.78
-196.91
-188.75
-178.32
-168.27
-161.1
-158.14
-160.14
-164.47
-165.47
-156.63
-133.28
-95.64
-49.26
-3.19
34.26
57.51
66.45
65.1
58.56
50.63
42.64
34.33
25.36
16.59
9.02
3.72
0.97
-0.06
-0.64
-2.04
-4.5
-7.42
-9.07
-8.34
-4.83
0.83
7.16
12.43
15.25
15.05
12.15
7.73
2.85
-1.81
-6.15
-10.54
-15.56
-21.65
-28.93
-37.19
-45.68
-53.84
-61.38
-68.33
-74.88
-81.23
-87.36
-93.09
-98.15
-101.83
-103.75
-103.8
-102.02
-98.35
-92.46
-83.61
-70.51
-54.93
-37.56
-19.21
-0.69
17.31
34.52
51.13
67.74
84.99
103.23
122.8
143.43
164.52
185.47
205.91
225.73
244.97
263.58
281.19
297.31
310.88
320.42
324.32
321.19
310.36
292.11
267.87
240.1
212.04
186.65
165.76
149.41
135.67
121.28
102.93
78.72
49.28
17.76
-11.44
-34.56
-49.88
-58.05
-61.25
-61.79
-61.13
-59.78
-57.98
-56.47
-56.61
-59.69
-66.12
-74.87
-83.77
-90.55
-93.9
-93.96
-92.04
-89.74
-88.16
-87.44
-86.93
-85.65
-82.96
-78.91
-74.24
-70.07
-67.36
-66.57
-67.43
-69.07
-70.52
-71.13
-70.83
-70.12
-69.79
-70.41
-72.12
-74.51
-76.88
-78.4
-78.23
-75.66
-70.51
-63.48
-56.2
-50.8
-48.57
-48.58
-47.24
-39.36
-20.65
9.55
47.19
84.66
113.93
129.89
132.05
123.82
109.96
93.97
76.91
58.23
37.54
16.13
-2.78
-15.37
-19.06
-13.9
-2.56
10.82
22.51
30.49
34.84
37.05
38.68
40.41
41.89
42.37
41.58
40.21
39.68
41.51
46.47
54.28
63.6
72.53
79
81.27
78.39
70.5
59.04
46.38
34.94
26.01
19.04
11.83
1.84
-12.09
-28.7
-44.69
-56.31
-61.43
-60.7
-57.1
-54.29
-54.74
-58.68
-64.43
-69.76
-73.18
-74.55
-74.66
-74.21
-73.11
-70.54
-65.66
-58.33
-49.48
-40.85
-34.2
-30.59
-29.88
-30.93
-32.37
-33.22
-33.25
-32.92
-33.05
-34.34
-37.03
-40.57
-43.58
-44.71
-43.1
-38.77
-32.78
-27
-23.32
-22.9
-24.99
-26.8
-25.59
-20.07
-11.2
-2.11
3.36
2.51
-5.26
-17.66
-30.17
-39.17
-42.91
-41.44
-36.38
-30.29
-26.19
-27.48
-36
-50.34
-66.76
-79.08
-80.03
-64.42
-32.06
14.84
66.87
108.76
134.31
144.84
145.3
142.01
139.84
140.79
144.45
149.37
155.36
163.73
173.83
182.25
184.12
175.32
154.75
123.29
83.82
41.02
1.94
-28.09
-46.02
-50.68
-42.3
-22.1
7.35
42.25
78.25
111.12
136.89
153.14
159.33
156.02
144.03
123.31
93.9
57.6
17.74
-21.57
-56.65
-85.96
-111.21
-136.25
-166.65
-206.28
-254.51
-306.95
-356.06
-392.7
-408.19
-396.45
-354.74
-287.37
-204.48
-119.88
-49.77
-7.97
-1.57
-28.95
-81.08
-143.77
-205.57
-259.28
-291.27
-292.66
-261.18
-202.32
-127.44
-59.17
-4.61
33.23
52.42
51.65
31.69
-7.29
-62.83
-129.25
-197.65
-255.99
-295.14
-310.13
-301.03
-273.92
-238.01
-201.58
-169.46
-142.6
-118.47
-95.95
-75.5
-58.41
-46.37
-40.02
-37.91
-37.28
-35.46
-30.42
-22.74
-14.57
-8
-4.46
-4.12
-5.65
-6.93
-5.99
-1.53
5.96
14.77
22.93
28.95
32.37
34.17
36.26
40.77
49.33
62.15
78.19
95.64
112.89
129.01
144.33
160.1
177.81
198.76
223.71
253.1
287.09
325.29
366.03
405.76
439.48
462.04
470.22
464.06
446.57
421.79
392.2
357.43
315.2
263.85
204.83
143.33
86.38
39.74
5.3
-19.45
-39.69
-60.6
-85.49
-115.41
-149.84
-187.78
-228.04
-268.77
-307.04
-339.05
-361
-370.4
-366.72
-351.35
-326.78
-295.71
-260.38
-222.33
-182.45
-141.28
-99.24
-56.63
-13.89
28.39
69.46
108.54
145.13
179.2
211.19
241.79
271.55
300.32
326.95
349.5
365.77
374.33
375.19
370.09
361.92
353.72
347.5
343.73
341.44
338.94
334.69
327.8
318.12
305.97
291.81
276.04
259.01
241.06
222.52
203.61
184.37
164.54
143.59
120.86
95.72
67.98
37.98
6.63
-24.78
-55.04
-83.32
-109.48
-134.06
-158.17
-183.12
-209.86
-238.22
-266.33
-290.47
-305.63
-306.68
-289.94
-254.51
-202.91
-140.79
-75.87
-16.24
31.44
63.57
80.44
86.15
87.22
90.3
99.78
116.15
135.94
153.25
162.35
159.94
146.25
124.59
99.71
76.07
56.49
41.74
30.86
21.95
12.98
2.44
-10.32
-25.06
-40.62
-55.29
-67.35
-75.79
-80.68
-83
-84.05
-84.62
-85.12
-85.05
-83.4
-79.29
-72.7
-64.6
-56.55
-50.07
-46.14
-46.12
-50.9
-60.74
-75.16
-93.13
-113.13
-133.42
-152.34
-168.7
-183.56
-198.72
-215.66
-234.78
-255.32
-275.81
-294.63
-310.68
-323.97
-337.64
-355.33
-379.06
-407.62
-436.61
-459.95
-471.98
-469.64
-441.49
-385
-307.12
-221.7
-142.7
-78.36
-30.28
3.85
27.3
42.11
49.87
52.2
51.69
51.64
54.91
62.89
75.4
91.57
109.54
127.16
143.56
159.95
178.98
203.2
233.16
266.55
298.81
325.14
341.96
349.02
349.35
347.18
344.79
340.54
329.48
306.16
267.86
215.98
155.7
94.17
38.48
-5.49
-33.07
-40.71
-26.68
7.27
54.7
104.99
146.35
169.95
173.17
160.32
140.13
121.86
111.63
110.95
117.36
126.51
133.95
136.03
129.87
113.29
85.25
46.86
2.04
-42.87
-80.89
-106.7
-118.53
-118.42
-111.15
-102.03
-94.94
-91.35
-90.5
-90.38
-88.97
-85.13
-78.97
-71.62
-64.75
-59.93
-58.23
-59.9
-64.45
-70.93
-78.23
-85.4
-91.8
-97.03
-100.81
-102.92
-103.33
-102.49
-101.54
-102.18
-106.14
-114.52
-127.07
-142.09
-156.9
-168.79
-176.07
-178.64
-177.84
-175.72
-174.09
-173.84
-174.68
-175.09
-172.59
-164.16
-146.99
-119.44
-82.03
-37.98
7.13
46.87
75.93
92.05
96.83
94.99
92.32
93.09
98.44
106.16
112.23
113.05
107.18
96.01
82.93
71.98
66.65
69.24
80.49
99.19
121.76
142.18
153.18
148.55
125.94
88.54
44.58
4.23
-24.5
-38.76
-41.27
-38.02
-34.89
-35.11
-38.68
-43.73
-48.58
-52.88
-57.52
-63.39
-70.21
-76.31
-79.6
-78.77
-74.14
-67.39
-60.46
-54.51
-49.55
-44.65
-39.08
-33.19
-28.46
-26.82
-29.84
-38.2
-51.67
-69.63
-90.52
-112.14
-131.82
-146.37
-152.68
-148.48
-133.2
-108.21
-76.74
-42.01
-6.85
26.41
56.31
82.03
103.45
121.11
136.31
150.67
166.89
187.28
209.77
228.66
236.33
226.85
198.87
159.3
112.61
63.31
16.84
-20.79
-44.06
-48.75
-34.31
-5.02
29.94
56.5
60.19
32.21
-25.55
-99.99
-171.92
-223.69
-245.4
-240.89
-218.08
-184.76
-146.47
-105.93
-64.06
-21.92
17.91
51.42
73.76
82.43
78.79
67.94
56.99
52.42
57.52
71.12
88.08
101.74
107.39
104.48
97.13
92.74
98.8
119.39
152.79
191.61
225.33
244.51
244.04
224.25
189.9
147.46
102.26
56.97
12.06
-32.5
-75.7
-113.33
-140.04
-151.98
-148.89
-134.45
-114.51
-94.52
-77.65
-64.37
-53.15
-42.25
-30.89
-19.41
-8.97
-0.75
4.63
7.51
9
10.54
13.21
17.24
22.41
28.27
34.4
40.48
46.24
51.34
55.28
57.46
57.24
54.26
48.62
40.66
30.66
18.47
3.51
-14.82
-35.67
-58.11
-80.28
-99.65
-114.1
-122.62
-125.86
-125.89
-125.21
-125.9
-129.28
-135.53
-143.78
-151.97
-156.89
-154.67
-142.07
-118.08
-84.99
-48.14
-13.8
13.19
31.1
41.14
45.71
46.49
43.65
36.38
24.67
10.55
-2.3
-9.81
-9.25
-0.12
15.52
34.08
50.32
58.49
53.82
34.79
5.03
-26.84
-50.02
-56.06
-42.81
-15.45
16.35
42.95
58.98
64.62
63.77
60.71
57.62
54.37
50.11
45.37
42.25
43.28
49.51
58.95
67.02
68.76
61.16
44.24
22.55
2.06
-12.53
-20.05
-23.14
-26.41
-33.66
-45.39
-58.09
-65.52
-61.67
-43.25
-11.07
30.55
74.94
114.68
142.68
153.28
144.24
118.61
85.59
58.22
47.94
58.7
83.48
106.99
113.35
94.81
56.81
15.99
-8.04
-2.64
31.56
81.2
126.84
151.63
147.53
117.06
70.1
18.01
-31
-74.14
-113.09
-151.29
-190.01
-229.4
-269.58
-311.33
-356.35
-405.86
-458.13
-506.94
-542.51
-554.74
-537.59
-491.48
-422.68
-341.29
-257.72
-179.97
-112.53
-56.81
-11.99
24.06
54.44
83.67
116.18
155.05
201.17
253.23
308.91
365.96
423.53
476.6
520.72
551.6
566.4
565.03
549.87
523.85
488.07
440.87
378.98
301.3
210.81
115.28
25.26
-49.64
-104.22
-138.9
-158.31
-168.38
-172.98
-173.62
-170.45
-163.98
-156.03
-149.29
-145.8
-145.81
-147.81
-148.99
-146.86
-140.55
-131.04
-120.76
-112.8
-109.78
-112.57
-119.29
-124.84
-122.42
-106.14
-73.97
-29.38
19.39
62.56
92.72
107.62
110.3
106.71
102.39
100.25
100.46
101.74
102.9
103.31
102.47
99.18
91.47
77.44
56.6
30.39
2.23
-23.83
-44.42
-57.77
-63.89
-63.82
-59.01
-50.76
-40.1
-27.9
-15.07
-2.61
8.46
17.3
23.17
25.78
24.84
20.25
12.17
1.06
-12.4
-27.35
-42.9
-58.24
-72.67
-85.65
-96.68
-105.42
-111.68
-115.37
-116.18
-113.17
-104.72
-89.19
-66.08
-37.04
-6.02
21.55
40.64
48.4
45.15
34.17
20.4
8.72
2.54
3.1
9.47
19.16
28.95
36.04
39.01
38.32
36.22
35.63
38.86
46.44
56.69
66.42
72.3
72.29
66.29
56.04
43.96
32.32
22.43
14.61
8.6
4.01
0.73
-1.21
-2.07
-2.84
-4.92
-9.71
-18.01
-29.74
-43.95
-59.12
-73.78
-85.29
-92.29
-94.35
-91.9
-86.08
-78.4
-70.43
-63.36
-57.68
-53.08
-48.94
-44.55
-39.51
-34.05
-28.81
-24.4
-20.93
-17.83
-14.21
-9.46
-3.64
2.33
6.95
8.87
7.41
2.95
-3.07
-8.45
-10.69
-7.47
2.39
18.2
37.08
54.53
66.05
69.11
64.4
55.66
47.98
45.38
49.07
57.31
66.7
74.25
78.78
80.91
82.03
82.88
82.99
81.04
75.98
68.02
58.84
51.01
46.72
46.72
49.91
53.89
56.24
55.76
53.13
50.55
50.55
54.66
62.52
71.98
80.17
84.9
85.77
84.25
82.87
83.75
87.48
92.83
97.3
98.15
93.16
80.95
60.78
32.21
-4.75
-49.18
-98.6
-148.85
-194.82
-231.75
-256.72
-269.34
-271.4
-265.77
-255.03
-240.71
-223.32
-202.95
-179.85
-154.55
-127.53
-99
-69.06
-38.49
-9.24
15.71
33.71
43.94
48.15
49.97
52.83
57.78
62.86
64.21
58.57
45.53
28.26
12.02
1.6
-1.01
2.7
9.01
13.92
14.81
11.18
4.2
-4.24
-12.63
-20.49
-28.23
-36.25
-44.21
-50.65
-53.06
-48.68
-35.41
-12.99
16.22
47.51
75.84
97.3
109.75
113.05
108.28
97.1
80.99
60.46
34.82
4.67
-28.65
-63.87
-99.95
-136.17
-171.14
-203.24
-231.53
-256.29
-275.61
-287.14
-289.73
-283.62
-270.25
-249.32
-219.65
-180.65
-134.52
-82.74
-29.61
16.8
48.4
61.12
56.39
42.48
38.78
56.82
100
165.98
246.6
331.1
407.6
468
504.78
510.72
460.14
350.19
205.08
62.86
-37.89
-96.94
-123.17
-126.14
-115.08
-97.18
-74.24
-48.48
-25.33
-11.82
-13.63
-28.02
-47.33
-62.96
-68.78
-60.37
-39.22
-13.07
7.99
15.95
11.47
1.11
-6.63
-4.93
10.4
38.32
73.47
109.54
141.99
171.23
199.41
227.55
254.74
279.23
298.67
310.67
313.11
303.69
280.83
243.39
191.98
130.61
66.93
10.14
-32.09
-55.87
-61.5
-51.72
-29.97
0.68
37.39
76.57
113.17
141.36
156.33
156.12
142.17
118.36
88.94
56.87
23.28
-11.78
-48.33
-85.92
-123.28
-158.52
-189.12
-212.03
-223.8
-221.47
-203.9
-172.95
-133.67
-93.18
-58.45
-33.96
-20.61
-16.01
-16.2
-17.63
-18.58
-19.35
-21.61
-27.36
-38.12
-54.45
-75.76
-100.29
-125.41
-147.94
-164.9
-174.27
-175.37
-168.82
-156.15
-139.23
-120
-100.45
-82.77
-69.27
-62.14
-62.86
-71.85
-88.12
-109.42
-132.69
-154.98
-174.22
-189.9
-202.82
-214.17
-224.33
-232.08
-234.78
-229.57
-214.81
-190.85
-159.79
-124.49
-87.56
-51.09
-16.79
13.7
39.18
59.58
76.81
94.27
115.46
141.83
171.3
198.5
216.68
220.59
208.7
183.95
152.44
121.08
95.26
77.53
67.7
63.71
62.95
63.08
62.44
59.95
55.05
47.75
38.71
29.13
20.35
13.29
7.94
3.33
-2.22
-10.48
-22.58
-38.48
-56.78
-74.9
-89.73
-98.63
-100.27
-95.09
-85.09
-72.94
-61.02
-50.72
-42.43
-36.08
-31.73
-29.87
-31.18
-35.9
-43.32
-51.78
-59.24
-64.07
-65.6
-64.14
-60.46
-55.11
-47.88
-37.83
-23.83
-5.26
17.63
43.65
70.98
97.44
120.75
138.68
149.32
151.78
146.7
136.5
124.72
114.8
108.82
106.98
107.88
109.41
109.69
107.44
101.97
93.02
80.83
66.36
51.42
38.24
28.75
23.73
22.51
23.29
24.08
23.54
21.67
19.83
20.29
25.61
37.61
56.56
80.91
107.63
133.23
154.95
171.5
182.94
189.8
191.92
187.88
175.43
152.78
119.82
78.71
33.41
-11.8
-53.72
-91.13
-124.52
-155.17
-183.9
-210.4
-233.17
-250.21
-259.92
-261.8
-256.54
-245.7
-231.07
-214.07
-195.41
-175.15
-152.98
-128.75
-102.74
-75.85
-49.36
-24.69
-2.97
15.15
29.61
40.93
50.04
57.83
64.79
70.57
73.85
72.6
64.76
49.08
25.89
-2.56
-32.34
-58.78
-77.63
-86.47
-85.41
-77.02
-65.22
-53.68
-44.54
-38.03
-33.12
-28.78
-24.79
-21.84
-20.58
-20.65
-20.25
-16.77
-8.27
5.25
21.41
36.31
46.29
49.62
47.26
42.42
39.07
40.23
46.73
57.2
69
79.61
87.63
92.92
96.02
97.2
95.97
91.26
82.12
68.51
51.6
33.4
15.97
0.67
-12.16
-22.85
-31.84
-39.09
-43.92
-45.37
-42.89
-36.85
-28.58
-20.01
-12.85
-8.02
-5.49
-4.52
-4.2
-3.73
-2.58
-0.45
2.73
6.65
10.38
12.41
10.9
4.41
-7.42
-23.38
-40.89
-56.63
-67.54
-71.73
-68.89
-60.25
-48.01
-34.59
-22
-11.42
-3.34
2.21
5.28
5.87
4.14
0.65
-3.46
-6.64
-7.47
-5.23
-0.32
5.91
11.73
15.8
17.68
17.94
17.75
18.34
20.49
24.42
29.88
36.52
44.01
52.28
61.34
71.21
81.64
91.94
101
107.42
109.98
108.06
101.84
92.19
80.37
67.6
54.88
42.97
32.43
23.53
16.31
10.44
5.41
0.79
-3.55
-7.45
-10.76
-13.73
-17.22
-22.39
-30.09
-40.31
-51.92
-63.16
-72.36
-78.85
-83.25
-87.3
-93.03
-101.9
-114.24
-128.97
-143.7
-155.11
-159.77
-155.27
-141.39
-120.42
-96.64
-74.58
-57.04
-43.71
-31.48
-16.26
4.34
29.01
53
69.73
73.55
62.05
36.82
2.43
-35.46
-72.29
-105.79
-135.06
-159.95
-179.96
-193.75
-199.27
-194.88
-180.09
-156.43
-126.87
-94.1
-60.48
-28.26
-0.33
19.78
28.32
22.81
7.89
-9.03
-18.2
-14.3
-0.05
16.57
29.17
34.31
39.02
51.28
75.92
113.53
159.93
209.14
249.98
270.96
266.36
239.11
196.5
145.16
88.89
29.37
-30.25
-83.56
-121.69
-137.25
-128.64
-102.41
-70.45
-42.11
-23.78
-17.07
-19
-23.95
-26.39
-23.7
-17.8
-11.67
-7.37
-5.3
-3.32
3.14
16.87
40.24
72.71
109.24
144.38
172.99
190.37
193.28
181.09
156.37
125.13
95.17
72.07
61.25
65.13
82.12
100.92
109.32
99.01
70.53
40.94
13.69
-12.12
-38.14
-68.41
-102.83
-138.99
-173.23
-200.44
-215.01
-213.87
-195.56
-163.83
-128.36
-100.98
-89.72
-94.54
-107.35
-116.7
-115.1
-100.17
-75.2
-46.19
-17.31
10.8
40.24
72.81
107.56
139.7
163.88
177.21
180.7
178.88
177.27
180.12
189.08
202.94
218.12
229.85
234.66
231.72
222.87
211.35
200.35
192.31
187.85
185.13
179.75
167.98
148.91
124.39
96.89
67.57
35.42
-3.02
-52.99
-119.9
-204.91
-302.44
-401.07
-486.8
-546.32
-570.22
-555.65
-492.49
-383.55
-249.83
-120.72
-17.05
67.55
145.92
227.71
309.24
381.77
437.59
473.04
489.45
490.34
461.69
397.98
306.71
218.54
139.18
67.1
-0.48
-59.78
-106.42
-138.34
-155.19
-159.4
-157.18
-156.74
-161.94
-172.58
-185.89
-199.07
-210.35
-218.12
-222.19
-226.31
-236.08
-253.25
-276.16
-301.04
-323.99
-341.72
-351.16
-337.47
-295.05
-230.86
-158.82
-91.49
-34.6
11.39
47.41
73.98
91.37
98.74
97.84
94.83
97.08
108.13
125.15
142.25
151.69
150.3
139.07
123.35
110.1
104.49
106.93
113.94
120.19
121.47
116.24
103.24
82.34
55.08
26.42
0.66
-15
-15.23
0.68
28.49
58.72
82.08
93.65
95.98
95.68
99.37
109.78
125.74
144.55
161.77
174.19
172.02
150.92
115.5
77.29
45.83
24.19
10.3
-1.97
-17.66
-39.22
-64.91
-92.11
-119.36
-148
-180.48
-207.35
-221.01
-216.39
-193.18
-154.25
-105.38
-54.33
-10.38
16.66
25.04
16.34
-2.98
-23.24
-34.05
-28.32
-5.49
26.92
58.32
76.27
70.85
39.56
-12.85
-76.69
-141.26
-191.09
-213.27
-205.24
-176.03
-139.27
-104.27
-74.23
-48.31
-24.33
-0.9
20.91
38.36
49.45
54.05
55.32
56.58
59.65
64.6
70.02
73.36
72.6
68.05
62.33
57.45
54.92
54.09
52.62
48.17
39.12
25.25
8.02
-9.49
-23.79
-32.25
-34.12
-30.31
-23.88
-17.31
-12.78
-10.83
-10.06
-7.8
-1.34
10.55
27.14
45.36
60.65
68.43
65.79
52.39
30.24
2.47
-28.66
-59.55
-87.27
-109.61
-125.06
-132.48
-131.32
-121.65
-104.61
-82.14
-56.33
-28.82
-0.09
30.46
63.69
99.84
138.11
176.6
212.47
242.61
264.41
276.85
280.85
278.78
273.54
267.74
263.01
259.89
257.53
255.16
252.92
251.51
250.83
249.17
243.68
231.91
213.52
188.94
161.32
135.69
116.65
105.77
100.91
98.04
93.49
85.41
69.44
43.54
9.38
-28.43
-65.37
-99.06
-128.87
-155.21
-178.79
-207.46
-246.92
-297.04
-352.13
-405.71
-454.05
-496.03
-531.82
-561.96
-596.34
-642.16
-699.22
-760.23
-817.06
-865.18
-903.62
-933.19
-897.02
-766.4
-557.45
-322.5
-110.24
57.44
180.36
267.55
329.29
374.22
399.36
402.39
387.03
363.07
340.33
324.25
316.04
314.6
318.38
318.88
310.09
292.03
270.34
251.18
237.63
229.63
225.38
223.11
216.78
202.14
178.97
150.79
121.78
94.51
71.21
51.95
36.84
23.73
10.96
-1.74
-13.38
-22.96
-30.24
-35.48
-39.07
-40.89
-41.56
-41.73
-41.92
-42.54
-44
-46.67
-50.46
-54.76
-58.36
-60.31
-60.17
-58.41
-56.14
-54.53
-54.52
-56.71
-61.58
-68.89
-77.35
-83.95
-84.55
-75.22
-54.39
-24.24
9.57
39.91
61.23
71.58
72.87
69.12
64.12
59.75
55.91
51.7
46.65
41.55
37.69
35.99
36.23
37.21
37.42
35.68
31.9
26.95
22.21
18.89
17.5
17.67
18.43
18.66
17.61
15.22
12.06
9.01
6.83
5.83
5.81
6.2
6.35
5.83
4.58
2.88
1.17
-0.16
-0.95
-1.23
-1.26
-1.31
-1.6
-2.2
-3.07
-4.09
-5.12
-6.05
-6.87
-7.56
-8.2
-8.85
-9.59
-10.48
-11.58
-12.84
-14.19
-15.52
-16.72
-17.77
-18.77
-19.9
-21.39
-23.4
-25.93
-28.71
-31.35
-33.39
-34.48
-34.5
-33.53
-31.78
-29.35
-26.13
-21.66
-15.37
-6.88
3.73
15.74
27.98
39.11
48.19
55.02
60.22
64.94
70.35
76.98
84.43
91.54
96.92
99.49
99.03
96.15
92.11
88.43
86.6
87.84
92.68
100.3
107.99
111.33
105.3
86.6
55.5
16.32
-23.82
-57.67
-80.58
-91.8
-93.98
-91.53
-88.07
-85.5
-84.29
-84.44
-86.31
-90.7
-98.15
-108.38
-120.34
-131.93
-140.87
-145.57
-145.52
-141.24
-133.74
-123.97
-110.43
-93.27
-72.91
-50.06
-25.85
-1.8
20.38
39.22
53.76
63.81
69.57
71.98
72.18
71.22
69.79
68.3
66.85
65.44
63.96
62.08
59.74
57.01
54.12
51.41
49.29
48.07
47.8
48.16
48.46
48.07
46.66
44.35
41.84
40.12
40.01
41.71
44.52
46.99
47.4
44.41
37.55
27.1
14.04
-0.64
-16.32
-33.05
-51.35
-71.65
-93.54
-116.9
-141.39
-166.11
-189.04
-206.73
-214.81
-209.56
-190.03
-159.27
-123.95
-91.84
-68.87
-56.91
-53.65
-54.45
-54.8
-51.96
-45.32
-35.45
-22.82
-7.31
11.46
33.23
55.98
77.35
94.95
107.01
113.13
114.33
112.31
108.94
105.39
101.94
98.22
93.6
87.66
80.51
73.28
66.52
60.91
56.68
53.55
50.94
48.28
45.2
41.69
38.08
34.7
31.86
29.71
28.06
26.69
25.42
24.23
23.25
22.63
22.42
22.54
22.8
22.91
22.63
21.98
21.1
20.28
19.82
19.82
20.44
21.69
23.78
26.38
29.26
32.14
34.67
36.58
37.71
38.19
37.96
36.56
33.02
26.3
15.76
1.68
-14.52
-30.87
-45.45
-57.11
-65.5
-70.87
-73.48
-73.45
-70.84
-65.94
-59.2
-51.16
-42.16
-32.27
-21.52
-10.37
0.25
9.13
15.18
17.85
17.25
14.13
9.56
4.54
-0.11
-3.42
-4.5
-2.76
1.89
8.99
17.75
27.27
36.57
44.86
52.08
58.88
66.39
75.71
87.3
100.56
114
125.21
132.18
134.15
131.85
126.93
121.32
116.83
115.11
117.44
124.09
134.77
148.48
163.12
175.29
181.32
179.04
169.11
154.75
137.2
117.03
94.19
68.34
38.87
5.48
-30.97
-68.19
-103.39
-138.96
-177.46
-219.08
-260.79
-298.49
-329.32
-352.52
-369.26
-382.15
-400.29
-430.88
-475.54
-529.53
-585.46
-636.85
-679.41
-710.83
-693.32
-607.74
-463
-292.55
-130.84
3.23
106.06
181.99
237.54
278.56
303.57
311.47
304.66
289.91
274.66
263.78
258.96
259.74
264.55
267.02
262.26
248.85
229.87
209.52
190.45
173.37
157.77
142.77
124.8
103.35
78.72
53.67
31.55
14.48
2.93
-3.76
-6.8
-8.84
-11.72
-16.14
-21.03
-24.91
-26.89
-27.05
-26.12
-25.07
-25.16
-26.94
-30.21
-33.73
-36.21
-36.94
-36.18
-34.92
-34.42
-35.6
-38.55
-42.63
-46.47
-48.94
-49.47
-48.43
-46.86
-45.98
-46.76
-49.86
-55.74
-64.25
-74.04
-82.09
-84.11
-75.97
-55.92
-25.98
8.14
39.16
61.19
71.97
73.21
68.95
63.06
57.59
52.58
47.18
40.99
34.7
29.62
26.69
25.76
25.65
24.8
21.95
16.94
10.59
4.28
-0.76
-3.96
-5.63
-6.69
-8.21
-10.86
-14.62
-18.78
-22.29
-24.24
-24.24
-22.51
-19.74
-16.79
-14.38
-12.88
-12.24
-12.15
-12.2
-12.09
-11.66
-10.8
-9.5
-7.72
-5.3
-2.08
2.05
7.03
12.6
18.3
23.54
27.7
30.23
30.74
29.11
25.54
20.49
14.68
8.97
4.12
0.74
-0.81
-0.41
1.88
5.94
11.59
18.62
26.7
35.2
43.18
49.49
53.13
53.38
50.25
44.42
37.06
29.62
23.19
18.24
14.59
11.72
9.26
7.41
6.98
9.1
14.95
24.81
37.83
52.22
66.04
77.85
87.37
95.36
103.3
113.33
127.48
147.37
173.73
205.62
239.97
271.76
295.13
302.87
291.74
263.15
222.54
177.25
133.9
96.49
66.17
41.68
20.98
2.39
-15.61
-34.43
-55.78
-81.69
-114.59
-156.56
-208.86
-269.85
-334.17
-393.5
-438.58
-462.63
-463.49
-443.91
-409.27
-365.5
-316.83
-266.36
-217.93
-177.25
-151.27
-145.31
-159.91
-185.07
-206.77
-211.16
-190.59
-146.79
-88.76
-27.86
27.65
74.53
113.38
145.59
171.79
191.25
202.98
207.1
204.87
198.97
192.48
187.82
185.42
184.22
181.01
172.28
155.92
131.18
99.17
62.24
23.03
-16.68
-54.81
-90.66
-124.22
-155.24
-184.27
-212.09
-239.39
-265.29
-286.81
-298.7
-294.86
-274.25
-236.01
-184.64
-128.68
-77.29
-36.1
-5.84
17.03
38.08
61.55
88.91
117.91
144.86
166.71
182.84
194.19
202.33
209.56
218.02
230.1
247.79
272.74
301.71
330.83
354.24
359.88
339.5
291.95
225.1
152.42
87.18
37.11
3.44
-17.57
-30.73
-38.48
-41.43
-39.46
-33.65
-26.36
-20.45
-17.42
-17.26
-18.45
-18.13
-14.09
-5.51
6.61
19.78
30.97
38.07
39.53
35.06
25.81
13.33
-1.08
-16.77
-34
-52.59
-72.64
-94.09
-116.17
-137.25
-155.28
-168.42
-175.72
-177.48
-175.1
-170.77
-166.63
-164.25
-164.57
-168.18
-175.12
-184.11
-192.1
-194.25
-185.64
-163.54
-129.36
-88.93
-50.55
-21.73
-6.13
-2.91
-8
-16.67
-25.85
-34.61
-43.27
-51.74
-59.05
-62.35
-59.09
-47.97
-29.58
-5.94
20.06
45.91
69.97
91.04
109.39
125.66
140.31
153.09
163
168.49
168.35
162.19
150.97
137.17
123.85
113.77
108.4
107.3
108.19
108.05
104.36
96.17
84.77
72.98
63.81
59.39
60.84
67.03
75.96
84.65
89.03
84.28
66.35
34.48
-6.84
-47.7
-75.73
-81.11
-61.61
-24.23
17.58
49.87
64.01
59.4
41.88
19.28
-2.59
-21.7
-38.59
-53.8
-66.19
-73.27
-72.7
-64.48
-51.49
-38.18
-28.66
-24.98
-26.25
-29.56
-31.55
-29.85
-23.85
-15.04
-6
0.89
4.3
4.66
3.81
4.14
7.47
14.29
23.51
32.97
40.36
43.89
43.05
38.46
31.46
23.34
14.74
5.41
-5.51
-18.58
-34.1
-51.24
-68.26
-83.02
-93.94
-100.34
-102.88
-103.37
-103.21
-103.89
-106.42
-111.5
-119.09
-127.95
-135.14
-136.49
-128.03
-107.98
-78.51
-45.23
-15.29
5.53
15.01
14.71
8.48
0.17
-8.04
-15.96
-24
-32
-38.66
-41.93
-40.24
-33.27
-22.01
-8.13
6.56
21.04
35.07
48.45
61.4
73.68
84.52
92.84
97.66
98.55
95.88
90.78
84.99
79.58
75.3
72.36
70.49
69.11
67.76
66.02
63.87
61.27
58.64
55.72
52.38
48.37
43.47
37.52
30.34
22.02
12.84
3.36
-5.62
-13.09
-18.11
-20.13
-19.1
-15.62
-10.62
-5.05
0.44
5.68
10.77
15.96
21.19
25.81
28.76
29.03
26.22
20.86
14.57
9.2
6.5
7.48
12.18
19.87
29.46
39.35
47.57
51.83
50.09
41.9
28.87
14.34
1.96
-5.61
-7.89
-6.14
-2.57
1.34
5.94
13.24
25.34
42.72
63.3
82.69
95.9
98.92
90.7
73.94
54.22
37.49
27.83
26.43
31.81
41.26
52.71
64.36
75.99
88.5
102.61
117.8
132.32
144.05
151.3
150.7
140.14
120.37
94.47
66.09
37.66
10.39
-15.24
-38.73
-63.43
-91.65
-122.62
-152.93
-179.31
-200.95
-219.44
-237.5
-257.71
-287.12
-330.48
-387.33
-452.09
-517.6
-578.29
-630.86
-673.54
-671.52
-605.31
-481.14
-328.85
-180.61
-55.03
43.16
116.77
170.99
210.95
235.48
243.77
238.37
225.59
212.36
203.09
199.32
200.49
205.3
208.2
205.04
195.35
182.49
170.9
163.34
160.32
160.33
161.32
158.51
148.27
129.93
105.97
80.13
55.44
34.54
17.49
3.51
-9.85
-24.4
-40.26
-55.72
-68.39
-76.69
-80.15
-79.93
-77.75
-75.9
-76.12
-79.33
-85.68
-94.59
-104.4
-111.94
-113.02
-103.62
-82.04
-50.47
-14.75
17.7
40.88
52.55
54.48
50.67
45.12
39.9
35.05
29.69
23.46
17.08
11.92
8.94
7.89
7.47
6
2.12
-4.41
-12.68
-21.17
-28.37
-33.33
-35.93
-36.65
-36.03
-34.33
-31.27
-26.13
-18.14
-6.94
7.09
22.84
38.25
51.81
62.44
69.71
73.92
75.82
76.24
75.8
74.76
73.41
71.49
69.02
66.25
63.69
61.84
60.94
60.83
61.2
60.97
59.37
56.08
51.24
45.42
39.39
33.71
28.64
24.05
19.58
15.16
10.97
7.55
5.56
5.38
7.07
10.42
15.22
21.19
27.75
33.6
36.51
33.92
24.02
6.71
-15.89
-40.01
-61.68
-77.83
-87.11
-89.53
-85.7
-76.12
-61.11
-41.55
-19.31
2.59
20.88
33.14
38.87
39.43
37.5
36.1
37.05
40.25
43.84
45.28
42.37
34.26
21.48
6.01
-9.04
-20.23
-24.77
-21.22
-9.39
9.7
34.28
61.74
89.59
115.83
139.03
158.35
172.42
181.14
186.09
190.03
194.12
198.29
201.15
200.61
194.51
181.76
163.25
141.61
120.06
98.08
74.36
48.72
23.18
0.84
-15.71
-25.38
-28.75
-27.99
-30.96
-44.5
-71.26
-108.91
-152.98
-199.44
-245.38
-288.57
-327.46
-368.11
-417.23
-478.46
-550.49
-628.5
-706.5
-778.06
-837.03
-839.98
-762.12
-610.4
-421.69
-237.04
-80.61
41.81
134.53
204.27
256.82
290.03
302.01
295.21
277.54
258.34
244.19
237.79
238.59
244.73
249.17
246.46
235.55
220.17
205.62
195.42
190.39
189.26
190.18
188.19
179.43
162.84
140.36
115.03
89.16
64.86
42.81
23.65
6.56
-9.07
-23.21
-35.3
-44.94
-52.42
-58.39
-63.39
-67.29
-70.07
-71.74
-72.34
-72.17
-71.8
-71.98
-73.39
-76.71
-82.31
-89.8
-97.46
-101.96
-99.11
-85.49
-60.46
-27.16
8.1
38.37
58.79
68.23
69.13
65.53
60.88
56.69
52.74
48.26
43.18
38.39
35.12
34
34.58
35.53
35.38
33.16
29
23.9
19.23
16.07
14.75
14.77
15.09
14.65
12.85
9.72
5.93
2.31
-0.41
-2.02
-2.77
-3.25
-4.08
-5.6
-7.85
-10.53
-13.19
-15.52
-17.39
-18.93
-20.45
-22.26
-24.55
-27.33
-30.42
-33.44
-35.89
-37.29
-37.17
-35.28
-31.6
-26.26
-19.56
-11.91
-3.66
4.94
13.71
22.48
30.97
38.77
45.42
50.51
53.89
55.77
56.66
57.25
58.07
59.28
60.63
61.53
61.4
60.04
57.75
55.23
53.35
52.74
53.63
56.03
59.86
64.86
70.5
75.57
78.18
76.29
68.7
55.88
40.29
25.4
14.36
8.73
8.17
10.98
15.27
19.7
23.62
26.63
28.03
27.21
24.64
22.35
23.43
30.47
44.03
62.13
81.06
96.7
106.34
109.57
107.8
102.82
95.63
85.89
72.16
52.33
24.29
-13.62
-61.31
-115.53
-169.18
-212.37
-235.57
-233.85
-209.99
-175.67
-147.16
-139.07
-158.76
-204.14
-265.29
-329.19
-384.65
-418.7
-424.41
-400.91
-352.01
-284.06
-204.15
-119.43
-36.89
36.76
96.36
138.54
162.9
172.81
174.26
173.52
174.85
179.29
185.1
189
187.27
177.38
159.25
135.34
109.01
82.91
57.84
33.06
7.02
-21.98
-55.85
-94.99
-138.21
-182.83
-224.8
-259.04
-280.07
-284.06
-264.31
-224.08
-173.46
-124.97
-88.35
-67.11
-59.17
-57.65
-56.36
-51.46
-42.28
-28.5
-8.86
19.07
58.2
107.37
162.72
217.8
265.46
299.16
315.74
315.87
303.28
283.11
260.25
238.47
219.41
202.85
186.89
169.79
150.86
130.86
111.52
94.78
82.3
74.78
72.05
72.98
75.55
76.53
71.67
56.68
29.21
-9.08
-52.09
-90.67
-116.06
-123.35
-113.47
-92.68
-69.65
-51.85
-42.89
-42.2
-46.46
-51.98
-56.49
-59.47
-61.34
-62.35
-61.78
-57.99
-49.68
-36.74
-20.87
-5.2
7.13
14.23
16.11
14.59
12.53
11.25
10.89
10.31
7.72
1.89
-7.13
-17.61
-26.72
-31.48
-29.99
-22.13
-9.62
4.53
17.29
26.37
30.92
31.36
29.03
25.29
21.21
17.22
13.16
8.75
3.35
-3.31
-10.84
-17.84
-22.46
-22.78
-17.94
-8.39
4.32
17.6
29.43
39.44
48.7
58.46
68.85
77.89
82.26
78.9
65.73
43.51
16.29
-9.84
-28.67
-36.19
-31.71
-18.04
-0.53
13.21
16.33
4.95
-21.5
-59.47
-104.23
-150.66
-194.52
-224.88
-233.87
-219.71
-187.22
-144.5
-99.01
-56.43
-20.38
7.46
27.36
39.85
46.52
49.81
52.19
55.43
59.78
64.51
68.75
72.19
74.35
74.86
74.28
72.9
70.26
64.98
55.41
40.7
21.3
-0.01
-21
-39.37
-53.65
-63.59
-70.23
-75.35
-80.85
-88.26
-97.97
-108.67
-116.51
-116.14
-102.84
-75.14
-36.36
6.28
43.95
70.23
83.04
84.97
81.21
76.88
74.99
75.83
77.57
76.92
70.84
57
34.95
6.8
-22.84
-48
-63.77
-66.61
-58.19
-42.48
-23.76
-4.91
12.78
28.84
42.55
52.71
58.43
59.64
58.06
56.13
56.06
58.92
64.06
69.65
73.44
73.88
70.21
62.99
53.27
42.08
29.91
16.72
2.78
-11.86
-26.5
-40.13
-51.55
-60.08
-65.77
-69.43
-72.14
-74.64
-77.13
-79.09
-80
-79.4
-77.52
-75.06
-73.01
-72.31
-73.62
-77.56
-84.09
-91.96
-98.15
-98.79
-89.56
-68.69
-38.25
-3.84
27.42
49.83
61.25
63.41
60.27
55.74
51.8
48.42
44.72
40.19
35.47
31.82
30.2
30.51
31.68
32.21
30.87
27.43
22.65
17.8
14.09
12.16
11.8
12.19
12.24
11.15
8.64
5.06
1.12
-2.41
-4.99
-6.46
-7.06
-7.27
-7.69
-8.79
-10.82
-13.75
-17.23
-20.7
-23.53
-25.29
-25.91
-25.79
-25.68
-26.27
-27.96
-30.39
-32.47
-32.69
-29.81
-23.17
-13.23
-1.4
10.61
21.33
30.12
37.32
43.88
50.85
59.17
69.53
82.19
96.38
109.52
117.39
115.19
99.53
70.56
32.81
-6.07
-38.06
-57.24
-62.64
-57.46
-46.7
-34.48
-22.72
-11.47
-0.31
10.53
19.97
26.66
30.04
30.8
30.42
30.58
32.36
35.85
40.38
45
48.76
51.23
52.38
52.51
51.87
50.49
48.03
43.93
37.58
28.38
15.88
-0.12
-19.46
-41.56
-64.93
-88.16
-109.61
-127.99
-142.54
-153.26
-160.86
-166.29
-171.29
-177.11
-185.15
-196
-208.5
-219.07
-222.19
-212.88
-187.73
-147.84
-98.88
-48.95
-5.16
29.04
54.65
75.5
95.59
116.32
136.95
155
168.12
175.61
178.35
178.14
176.57
174.34
171.63
168.96
166.64
165.53
165.88
166.04
162.27
150
126.18
91.67
51.55
13.29
-16.11
-33.11
-38.44
-35.9
-29.99
-23.87
-18.64
-14.1
-9.97
-6.33
-3.63
-1.98
-0.76
1.02
4.05
8.58
13.78
18.27
20.75
20.43
17.05
11
2.72
-7.65
-20.24
-35.38
-53.06
-72.16
-91.34
-109.11
-124.01
-135.4
-143.46
-149.02
-153.38
-158.36
-165.05
-174.17
-184.97
-194.68
-198.8
-192.8
-174.36
-144.97
-109.8
-75.84
-48.37
-29.39
-17.08
-7.42
3.42
17.22
33.34
49.99
65.19
78.47
90.27
101.03
110.42
117.3
120.44
118.99
113.35
105.44
96.97
89.58
84.17
80.63
78
75.09
71.02
65.59
59.43
53.49
48.71
45.5
43.68
42.51
41.19
39.08
36.16
32.91
30.07
28.24
27.67
28.16
29.08
29.75
29.71
29.08
28.47
28.76
30.44
33.71
38.14
42.79
46.9
49.42
50.21
49.8
49.1
48.73
48.83
48.86
47.8
44.72
39.15
31.55
22.56
14.1
7.41
3.37
2.5
4.59
8.4
11.22
9.18
-1.5
-22.65
-52.96
-87.79
-120.38
-144.49
-156.52
-156.51
-147.24
-132.33
-113.85
-94.05
-73.78
-53.76
-35.4
-20.37
-9.81
-3.52
-0.1
2.41
5.55
9.87
14.75
18.86
21.07
21.12
19.87
18.9
19.83
23.2
28.47
33.98
37.58
37.62
33.53
25.96
16.3
5.95
-4.37
-14.7
-25.66
-37.61
-51.05
-66.06
-82.27
-98.5
-112.36
-120.33
-118.64
-104.91
-80.11
-48.15
-15.49
11.43
28.63
35.82
35.74
32.19
28.11
24.53
21.05
17.01
12.53
8.53
6.09
5.57
6.33
7.04
6.38
3.71
-0.65
-5.66
-10.15
-13.38
-15.4
-16.88
-18.81
-21.92
-26.26
-31.07
-35.03
-36.73
-35.1
-29.7
-20.83
-9.21
4.32
18.96
34.05
48.95
62.86
74.78
83.69
88.59
88.99
85.05
77.61
67.98
57.61
47.78
39.42
33.16
29.15
27.29
27.44
29.37
32.8
37.67
44.07
52.08
61.31
70.2
76.17
76.22
67.87
50.29
24.9
-4.72
-34.19
-58.1
-73.27
-79.35
-78.31
-73.44
-67.78
-63.05
-59.14
-54.61
-47.72
-36.98
-21.9
-2.84
19.19
42.5
64.1
79.56
83.79
73.11
47.36
10.92
-28.37
-62.23
-85.18
-96.39
-98.97
-97.42
-95.08
-92.78
-89.59
-84.37
-77.11
-69.01
-61.51
-55.26
-49.59
-43.06
-34.13
-22.05
-7.01
10.14
28.47
47.39
67.06
88.43
111.81
137.29
164.03
190.02
212.25
227.48
233.36
229.24
216.23
196.59
172.79
146.48
118.27
88.13
56.12
22.81
-10.68
-43.23
-74.31
-104.04
-132.92
-161.28
-188.55
-213.12
-232.62
-244.67
-247.72
-241.5
-226.94
-205.87
-180.55
-153.21
-125.75
-99.64
-75.79
-54.63
-36.17
-20.24
-6.71
4.22
12.18
16.82
18.2
16.84
13.58
9.28
4.54
-0.21
-4.39
-7.12
-7.23
-3.75
3.63
14.45
27.6
41.74
55.73
68.84
80.66
90.93
99.18
104.94
108.05
108.79
107.82
105.95
103.83
101.82
99.97
97.59
93.87
88.16
80.3
70.62
59.75
48.29
36.53
24.5
11.31
-3.79
-20.53
-37.46
-52.51
-64.19
-72.48
-79.08
-86.22
-96.73
-111.67
-129.21
-145.23
-155.24
-156.66
-150.04
-138.39
-120.58
-97.19
-69.99
-42.24
-17.87
0.64
14.04
26.84
45.77
76.61
119.39
167.55
209.83
234.72
234.85
209.22
162.81
99.55
30.46
-35.23
-93.51
-144.49
-187.81
-219.23
-231.52
-218.32
-178.8
-119.11
-52.77
5.33
44.87
63.78
67.42
63.77
59.56
57.86
58.98
61.01
62.17
62.07
61.42
60.34
56.36
45.66
24.87
-6.16
-44.42
-84.35
-120
-146.05
-156.44
-151.04
-134.04
-113.76
-95.21
-81.68
-75.39
-78.62
-91.58
-111.25
-132.98
-150.75
-158.61
-151.89
-126.3
-82.02
-24.92
37.7
101.06
162.79
223.35
284.45
341.02
384.62
417.53
437.73
436.11
410.44
365.09
309.15
253.53
207
173.66
151.63
133.24
110.97
81.99
47.31
8.89
-32.07
-76.09
-124.11
-176.34
-232.44
-289.52
-341.97
-376.89
-384.37
-361.51
-314.49
-254.82
-193.82
-138.94
-92.46
-52.72
-17.23
14.3
40.62
60.05
72.14
78.18
80.45
81.78
84.92
91.38
99.95
107.81
111.62
108.99
99.17
82.87
61.86
38.51
16.16
-3.83
-21.55
-37.95
-53.93
-69.7
-84.6
-97.3
-106.24
-110.39
-110.06
-106.7
-102.36
-98.88
-97.47
-98.79
-103.13
-110.29
-118.82
-125.77
-126.66
-116.9
-94.01
-59.53
-19.17
19.12
48.36
65.26
70.79
68.96
64.14
59.02
54.09
48.64
42.25
35.58
30.09
26.9
26.01
26.28
26.02
23.7
18.9
12.34
5.46
-0.31
-4.2
-6.4
-7.86
-9.79
-13.12
-17.97
-23.68
-29.09
-32.93
-34.32
-33.06
-29.57
-24.49
-18.53
-12.15
-5.56
1.28
8.38
15.63
22.72
29.18
34.52
38.33
40.4
40.78
39.77
37.85
35.54
33.28
31.38
29.91
28.75
27.68
26.48
25.13
23.9
23.18
23.46
24.99
27.72
31.25
34.98
38.34
41.05
43.16
45
47
49.59
53.12
57.81
63.55
69.64
74.69
76.77
74.12
65.78
52.29
35.51
17.96
1.82
-11.81
-23.02
-32.55
-40.98
-48.27
-53.85
-57.16
-58.13
-57.44
-56.21
-55.4
-55.5
-56.29
-57.19
-57.51
-56.73
-54.67
-51.43
-47.17
-42.06
-36.24
-29.89
-23.23
-16.55
-10.13
-4.23
0.9
5.05
8.06
9.9
10.7
10.76
10.47
10.21
10.17
10.34
10.55
10.65
10.66
10.77
11.21
12.03
12.88
13.17
12.23
9.66
5.56
0.39
-5.23
-10.87
-16.37
-21.77
-27.04
-32.04
-36.55
-40.5
-44.01
-47.26
-50.09
-51.76
-51.07
-46.55
-37.27
-23.41
-6.32
11.94
29.43
44.75
57.12
66.2
71.91
74.3
73.66
70.5
65.43
59.06
51.9
44.32
36.71
29.5
23.09
17.8
13.76
10.88
8.91
7.59
6.6
5.69
4.55
2.92
0.75
-1.72
-3.87
-4.88
-4.14
-1.72
1.38
3.47
2.77
-1.64
-9.2
-17.9
-25.03
-28.29
-26.75
-21.07
-12.91
-4
4.63
12.6
19.6
24.85
27.1
25.15
18.7
8.87
-2.12
-11.52
-17.1
-17.83
-14.02
-7.14
0.75
7.61
12.07
13.44
12.05
8.73
4.44
-0.16
-4.56
-7.93
-8.92
-5.99
1.42
12.15
23.19
30.75
32.15
27.4
19.28
11.94
8.58
9.63
12.73
14.04
10.47
1.3
-11.6
-24.95
-35.89
-43.13
-47.09
-48.93
-49.43
-48.46
-45.28
-39.24
-30.55
-20.37
-10.25
-1.48
5.43
10.71
14.9
18.45
21.53
23.99
25.57
25.91
24.74
21.83
17.24
11.39
5.34
0.46
-2.1
-2.02
0.07
3.18
6.36
9.22
11.78
14.39
17.3
20.29
22.76
24
23.81
22.38
20.12
17.5
15.14
13.49
12.09
9.03
1.09
-13.56
-34.67
-59.08
-81.17
-94.63
-95.3
-83.16
-62.48
-39.84
-20.4
-7.98
-1.89
-0.83
-3.74
-9.86
-18.35
-27.69
-35.36
-37.18
-24.98
2.91
40.56
78.47
109.08
129.17
140.52
142.35
132.33
108.04
68.49
15.86
-44.55
-103.44
-148.21
-169.85
-167.96
-149.56
-124.82
-102.2
-85.49
-73.17
-59.8
-39.3
-8.61
29.95
69.28
99.56
112.19
104.18
80.2
50.7
26.56
13.49
10.29
11.74
12.19
10.21
7.39
5.95
6.62
7.42
4.41
-6.23
-25.19
-50.88
-78.83
-102.68
-115.84
-113.22
-93.25
-59.08
-17.82
22
53.32
72.93
81.41
82
78.39
73.25
68.02
63.35
60.03
59.51
63.32
71.61
82.04
89.81
89.04
75.13
47.72
12.17
-21.26
-41.34
-41.24
-22.51
4.91
26.82
31.34
14.43
-18.97
-57.93
-91.25
-112.14
-119.96
-118.31
-111.6
-102.19
-88.82
-70.94
-48.56
-24.04
-1.34
15.67
25.17
28.26
28.2
28.78
32.34
39.26
47.84
55.48
60.09
61.15
59.81
58.1
57.73
58.99
60.75
60.72
56.55
46.99
32.44
14.84
-2.89
-18.58
-31.27
-41.24
-49.75
-58.16
-67.07
-76.03
-83.76
-89.07
-91.38
-91.5
-90.48
-89.78
-90.73
-94.23
-100.74
-110.01
-120.51
-129.19
-131.76
-124.23
-104.92
-76.07
-43.44
-14.34
5.41
13.6
12.06
5.16
-2.68
-8.73
-12.32
-13.75
-13.06
-9.45
-1.72
10.68
27.01
44.84
61.67
75.18
84.25
89.1
90.92
91.19
91.11
91.45
91.6
90.76
88.21
83.7
77.72
71.26
65.56
61.58
59.73
59.57
60.23
60.61
59.81
57.67
54.67
51.97
50.79
52
55.58
60.61
65.83
69.42
70.3
68.26
64.04
58.88
54.13
50.78
49.61
50.92
54.02
56.88
55.86
46.93
27.4
-2.32
-38.2
-73.66
-101.92
-118.77
-122.93
-117.26
-106.02
-92.52
-78.28
-63.55
-48.56
-34.26
-22.66
-15.71
-14.11
-17.39
-23.87
-31.55
-38.82
-44.94
-49.84
-53.81
-56.88
-58.12
-57.22
-53.52
-46.76
-37.38
-26.51
-15.64
-6.19
0.97
5.63
8.14
9.39
10.2
11.08
12.15
13.27
14.2
14.82
15.14
15.22
15.34
15.59
16
16.5
17.01
17.47
17.96
18.64
19.58
20.85
22.29
23.62
24.75
25.71
26.74
28.16
30.25
32.98
35.93
38.25
39.02
37.53
33.53
27.36
19.79
11.61
3.34
-5.09
-13.89
-23.74
-34.84
-46.7
-58.11
-67.54
-73.96
-76.98
-77.25
-76.27
-75.25
-75.3
-77.2
-81.43
-87.75
-94.94
-100.13
-99.41
-89.13
-68
-38.38
-5.77
23.11
43.17
52.77
53.92
50.52
46.11
42.37
39.08
35.37
30.9
26.41
23.16
21.96
22.5
23.58
23.75
21.89
18
13
8.24
4.84
3.26
3.09
3.33
2.94
1.2
-1.92
-5.84
-9.73
-12.9
-15.15
-16.85
-18.78
-21.56
-25.63
-30.83
-36.43
-41.42
-44.73
-45.58
-43.56
-38.73
-31.26
-21.48
-9.82
3.37
17.51
31.88
45.45
57.08
65.63
70.34
70.91
67.68
61.58
53.81
45.71
38.42
32.67
28.83
27.02
27.32
29.5
33.54
39.22
46.51
55.61
66.8
80
93.96
105.74
111.21
107.07
92.45
70.3
46.51
27.31
16.68
15.04
19.88
27.28
33.61
36.08
32.45
20.62
-0.81
-31.08
-66.32
-99.07
-121.12
-127.77
-119.64
-101.61
-79.84
-59.36
-42.39
-28.94
-18.23
-10.18
-5.38
-4.33
-6.75
-11.7
-17.48
-22.39
-25.56
-26.19
-25.11
-23.31
-21.39
-19.36
-16.54
-11.99
-4.97
4.58
16.01
27.8
38.19
45.68
49.3
49.29
46.46
41.85
36.2
29.72
21.76
11.34
-1.81
-17.76
-35.52
-53.13
-68.42
-79.79
-86.61
-89.64
-90.38
-90.48
-91.4
-94.09
-99.1
-106.4
-114.74
-121.18
-121.58
-111.96
-90.58
-59.66
-24.94
6.34
28.38
39.04
40.06
35.38
28.77
22.16
15.5
7.98
-0.51
-8.94
-15.42
-18.36
-17.37
-13.08
-6.7
0.61
8.39
17
26.81
37.93
49.86
61.19
70.13
75.14
75.32
70.87
63.01
53.26
43.18
33.93
25.99
19.24
13.29
7.76
2.62
-1.98
-5.8
-8.71
-10.53
-11.42
-11.57
-11.24
-10.63
-9.76
-8.65
-7.4
-6.28
-5.33
-4.92
-5.27
-6.56
-8.94
-12.37
-16.79
-22.24
-28.68
-35.54
-42.36
-48.56
-53.55
-56.84
-58.19
-57.63
-55.4
-51.91
-46.86
-40.05
-31.26
-20.38
-7.4
7.64
25.15
46.78
70.59
96.83
125.26
154.6
181.98
203.67
215.94
216.46
205.28
184.49
157.97
129.52
103.02
81.71
68.23
63.86
68.2
79.42
94.14
108.6
119.26
124.82
125.11
120.45
109.63
89.86
57.96
11.85
-48.07
-118.23
-191.22
-257.91
-305.6
-325.51
-318.22
-292.35
-259.23
-228.64
-210.03
-201.55
-198.13
-192.96
-179.83
-154.72
-116.59
-66.92
-12.65
37.45
78.46
109.46
133.81
156.03
179.4
205.54
234.56
265.56
288.6
296.91
286.34
256.95
211.69
155.39
94.79
37.84
-9.25
-43.34
-63.9
-74.73
-79.13
-77.52
-69.72
-52.41
-22.76
17.72
63.29
103.06
124.29
118.55
85.35
32.5
-27.08
-81.14
-123.55
-156.38
-182.01
-201.86
-215.39
-220.87
-217.12
-204.68
-180.65
-151.45
-123.67
-100.47
-81.82
-65.43
-48.76
-30.61
-11.65
5.93
18.61
24.83
25.4
22.48
18.71
16.25
16.02
17.82
20.74
22.96
24.03
24.46
24.98
26.05
27.76
29.77
31.63
33.07
33.43
32.82
31.3
28.42
23.29
15.1
3.31
-12.26
-30.99
-52.43
-74.55
-93.58
-104.62
-103.31
-87.82
-60.51
-27.45
3.76
26.81
39.31
42.85
41.18
37.83
34.47
30.81
26.02
20.07
14.1
9.84
8.35
9.03
10.04
9.31
5.41
-1.27
-8.72
-14.18
-15.19
-10.64
-1.18
11.15
24.03
35.68
45.51
53.62
61.14
69.02
77.74
87.47
98.01
108.58
117.04
120.13
114.2
97.03
69.5
35.87
2.82
-24.31
-42.42
-51.88
-55.36
-56.09
-56.08
-55.8
-54.99
-53.69
-52.63
-52.68
-53.95
-55.27
-54.54
-49.86
-40.64
-28.18
-15.34
-5.46
-0.92
-2.23
-7.8
-14.74
-20.09
-22.06
-20.75
-17.67
-14.49
-11.73
-8.63
-3.36
5.64
18.42
33.25
47.44
58.49
64.86
65.67
60.47
48.98
31.37
8.93
-15.61
-39.2
-58.71
-72.14
-79.06
-80.01
-75.59
-65.67
-49.66
-27.2
0.36
29.81
56.66
76.72
87.55
89.1
83.34
73.27
62
51.05
40.53
29.79
18.31
6.23
-5.66
-16.44
-25.38
-31.49
-34.99
-36.02
-34.12
-28.2
-16.94
0.67
25.15
56.58
95.55
140.19
187.56
233.73
273.94
303.26
317.64
315.8
294.86
258.17
209.8
154.96
98.66
44.65
-5.41
-52.05
-96.79
-141
-184.31
-229.23
-277.3
-328.04
-378.93
-426.98
-470.33
-508.22
-540.23
-543.85
-505.78
-427.32
-324.78
-219.16
-125.73
-50.83
6.17
49.46
84.06
110.11
126.4
132.62
130.67
124.01
116.32
110.65
108.99
112.04
116.63
118.95
116.83
110.5
102.01
93.97
88.68
87.56
90.83
95.66
98.29
96.12
88.19
75.25
59
41.56
24.54
8.86
-5.52
-20.05
-35.66
-52.39
-69.73
-87.17
-104.13
-119.32
-130.06
-132.78
-124.23
-103.05
-71.58
-35.63
-2.68
21.18
33.42
35.68
32.02
26.34
20.81
15.49
9.58
2.95
-3.4
-7.88
-9.19
-7.33
-3.51
0.66
3.74
5.32
6.08
7.17
9.53
13.53
18.55
23.53
27.52
30.23
32.1
34.39
38.45
44.25
52.15
61.39
70.64
78.64
85.66
90.75
93.8
94.84
93.76
90.27
83.83
74.12
61.35
46.3
30.05
14.26
0.76
-8.5
-11.87
-8.95
-1.06
8.42
14.86
13.9
3.87
-13.79
-34.69
-53.43
-66
-71.03
-69.7
-64.52
-58.01
-51.43
-45.24
-39.79
-35.66
-33.64
-33.95
-35.81
-37.62
-38.32
-37.41
-36.22
-37.41
-43.54
-55.21
-69.83
-82.07
-85.88
-77.14
-55.54
-24.81
9.47
42.05
69.46
90.57
105.78
116.1
122.36
125.14
125.1
124.07
124
125.36
126.38
123.55
113.2
92.69
61.44
21.3
-22.77
-65.11
-101.56
-130.48
-152.21
-167.25
-175.34
-175.1
-164.43
-139.63
-98.14
-40.56
28.7
102.06
170.55
225.47
259.89
260.61
222.14
153.15
74.01
5.62
-41.44
-67.56
-79.1
-82.89
-83.53
-81.78
-77.1
-70.62
-62.58
-53.01
-40.29
-21.56
5.59
41.29
83.81
126.13
159.12
178.43
184.28
179.02
163.83
137.18
96.48
42.45
-18.42
-79.38
-131.08
-166.57
-184.12
-187.31
-182.91
-177.48
-174.31
-166.46
-152.33
-131.05
-104.15
-75.45
-49.57
-29.69
-16.43
-7.82
-0.82
5.94
13.54
21.5
28.44
32.91
34.62
34.34
33.61
33.92
35.49
38.78
43.55
48.88
53.12
55.2
54.2
49.63
41.48
29.73
15.38
-0.45
-15.74
-29.8
-42.26
-53.08
-62.62
-71.68
-81.7
-93.37
-105.72
-115.36
-117.3
-106.51
-80.93
-43.25
-0.73
37.46
64.05
76.48
77.26
71.65
64.98
60.45
58.85
59.55
61.22
62.29
60.6
53.54
38.96
17.02
-8.98
-33.53
-50.18
-55.49
-49.86
-36.71
-20.45
-4.61
9.13
20.47
29.47
35.81
38.9
38.66
36.1
33.06
31.5
32.8
37.17
43.59
50.14
54.68
55.68
52.74
46.5
38.26
29.35
20.59
12
2.74
-8.01
-21.07
-36.3
-52.48
-67.62
-79.67
-87.41
-90.66
-90.61
-89.11
-87.98
-88.46
-91.24
-96.55
-104.07
-112.72
-119.36
-120.02
-110.96
-90.76
-61.58
-28.93
0.29
20.63
30.17
30.77
26.3
20.42
14.96
9.72
3.7
-3.51
-11.15
-17.73
-21.97
-23.61
-23.35
-22.12
-20.63
-18.66
-15.25
-9.08
0.83
14.51
30.93
47.81
63.16
75.32
83.56
88.03
89.76
90.09
90.15
90.48
91.34
92.01
91.65
90.1
86.87
82.24
76.82
71.22
65.61
59.69
52.83
44.11
33.04
19.73
5.35
-8.21
-18.92
-25.2
-26.54
-23.43
-17.45
-10.08
-2.55
4.85
12.48
20.79
30.11
40.54
52.1
64.24
75.56
83.28
83.54
72.63
49.01
15.04
-23.77
-58.29
-81.53
-90.86
-88.36
-78.98
-67.72
-57.48
-48.62
-40.25
-31.66
-23.58
-17.41
-14.14
-13.65
-14.57
-15.18
-13.82
-10
-4.26
1.93
7.06
10.29
11.72
12.27
13.18
15.61
20.01
26.01
32.38
37.42
39.71
38.37
33.21
24.8
14.31
2.95
-8.25
-18.58
-28.32
-37.95
-47.93
-58.37
-68.75
-78
-84.92
-88.84
-89.73
-88.58
-87.06
-86.26
-87.14
-90.3
-96.03
-104.15
-113.28
-120.44
-121.64
-113.15
-93.47
-64.93
-33.2
-5.16
13.7
21.68
20.87
15.53
9.83
6.2
4.97
5.64
8.02
12.7
20.81
32.77
47.77
63.58
78.18
89.7
97.39
102.2
104.63
105.59
105.3
103.34
98.9
91.32
80.28
66.25
50.41
33.48
17.48
3.46
-8.36
-18.15
-26.14
-32.43
-37.33
-40.68
-42.44
-42.45
-40.92
-38.09
-34.09
-28.9
-22.42
-14.62
-5.47
4.67
15.34
25.69
34.83
42.14
47.12
49.58
49.37
46.43
40.75
32.67
22.77
12.08
2.1
-5.57
-9.7
-9.72
-5.76
1.49
11.13
22.15
33.31
43.31
50.98
55.65
57.48
57.72
58.16
60.27
64.33
68.99
71.86
70.75
64.57
53.74
40.09
26.22
14.38
5.89
0.73
-2.2
-4.41
-7.92
-15.19
-27.74
-45.33
-65.71
-84.93
-98.14
-100.74
-88.98
-61.81
-22.1
23.62
66.78
98.92
114.02
110.05
87.07
51.57
15.09
-11.68
-24.14
-24.3
-16.84
-5.34
9.03
25.81
45.14
64.67
82.23
94.86
99.41
94.78
82.38
65.25
45.06
22.56
1.02
-18.5
-42.28
-75.16
-119.41
-175.19
-233.71
-288.66
-334.96
-369.81
-393.02
-389.53
-353.31
-289.48
-211.24
-131.75
-60.32
-0.21
48.59
86.86
115.35
133.13
140.31
139.09
133.63
126.58
120.6
116.46
112.93
107.71
96.81
77.62
50.22
20.23
-8.16
-31.71
-48.88
-59.94
-66.44
-71.31
-76.91
-84.38
-93.66
-104.61
-115.77
-124.11
-125.26
-114.83
-91.23
-56.72
-17.3
19.45
46.66
61.46
65.22
62.07
56.3
50.23
43.99
36.83
28.52
19.84
12.49
7.69
5.38
4.23
2.48
-1.34
-7.35
-14.31
-20.19
-22.83
-20.91
-14.41
-4.52
7.12
19.01
30.29
41.02
50.95
60.89
71.06
80.9
89.08
94.43
96.17
94.37
90.03
84.81
80.37
77.56
77.19
77.34
76.4
73.15
67.24
59.29
50.58
42.75
37.01
33.96
33.42
34.93
37.29
38.68
37.05
30.55
18.38
1.35
-18.26
-37.53
-53.66
-65.33
-73.11
-78.52
-83.06
-86.99
-89.28
-87.98
-81.45
-68.89
-51.24
-30.94
-10.89
6.66
20.92
32.49
42.58
51.85
60.12
66.26
69.05
68.33
65.12
61.22
58.25
56.65
53.8
47.76
37.38
23.28
7.84
-6.1
-16.55
-23.13
-27.2
-30.95
-35.5
-40
-41.43
-35.19
-17.38
13.91
57.7
109.78
162.57
208.13
240.23
256.23
258.21
249.89
235.94
220.64
206.44
191.74
173.71
150
120.08
87.18
53.38
20.84
-8.27
-33.07
-57.08
-84.25
-116.88
-154.22
-190.11
-221.5
-246.87
-266.22
-281.81
-300.64
-328.56
-367.38
-414.2
-459.86
-501.27
-539.25
-576.62
-588.91
-558.49
-481.3
-369.58
-266.24
-173.93
-89.59
-11.91
65.02
140.63
210.14
269.62
315.99
344.75
352.66
334.9
295.24
246.64
203.62
172.82
153.63
140.87
129.33
119.91
112.98
109.74
110.75
114.32
114.83
108.37
93.9
73.93
54.88
40.86
33.68
32.57
34.78
35.82
32.34
22.78
7.58
-11.24
-33.69
-58.58
-86.99
-115.54
-142.25
-166.36
-187.94
-205.17
-212.6
-203.54
-173.42
-123.68
-62.12
-1.18
47.55
77.56
89.57
89.68
85.45
82.37
81.93
83.01
82.96
80.47
75.73
70.49
66.61
64.87
65.05
66.37
68.88
72.85
78.35
83.49
84.77
77.85
59.54
30.06
-6.25
-41.86
-69.23
-82.08
-80.26
-67.89
-50.57
-32.72
-16.5
-2.35
9.83
19.72
26.69
30.16
30.73
29.95
29.62
31.12
34.68
39.47
44.24
47.95
49.9
50.19
49.25
47.57
45.12
41.21
34.93
25.61
13.23
-1.6
-17.03
-31.89
-45.33
-57.16
-67.75
-77.49
-86.45
-94.17
-100.04
-103.5
-104.63
-104.08
-102.98
-102.56
-103.84
-107.61
-114.24
-123.18
-132.25
-137.85
-135.69
-122.67
-98.76
-67.75
-36.13
-10.47
5.06
10.35
8.52
4.04
0.53
-0.47
1.01
4.46
9.87
17.92
29.4
44.12
60.29
75.8
88.46
96.84
100.74
101.12
99.53
97.67
96.45
96.17
95.93
94.63
91.43
86.07
79.32
71.84
64.89
59.32
55.45
52.97
51.24
49.53
47.46
45.25
43.02
42.59
44.99
51.08
59.55
68.39
75.31
78.45
76.81
70.65
61.35
50.43
38.71
28.12
19.95
14.85
12.22
9.98
4.25
-8.42
-29.56
-57.08
-85.51
-108.04
-118.8
-116.41
-103.74
-86.08
-68.18
-52.61
-39.39
-27.32
-15.7
-5.03
3.23
7.97
9.18
8.11
6.38
5.57
6.03
6.85
6.49
3.31
-3.5
-13.49
-24.96
-35.59
-43.15
-46.51
-45.99
-42.97
-39.51
-37.34
-37.28
-38.8
-40.35
-40.13
-37.07
-31.29
-24.04
-17.37
-13.32
-13.39
-18.43
-28.75
-43.8
-60.99
-76.96
-86.81
-85.93
-72.18
-47.41
-17.28
10.89
31.28
41.65
43.5
40.67
36.69
33.3
30.28
26.64
22
17.13
13.49
12.04
12.7
14.32
15.31
14.26
10.83
5.73
0.37
-3.78
-5.81
-5.56
-3.58
-0.82
1.79
3.82
5.44
7.32
10.26
14.81
21.05
28.49
36.15
42.86
47.65
50.1
50.42
49.24
47.44
45.81
44.91
45
46.03
47.52
47.94
45.86
39.43
27.31
9.71
-11.16
-31.46
-47.11
-55.53
-56.63
-52.71
-47.6
-44.78
-45.82
-49.79
-53.99
-55.44
-52.32
-44.69
-34.23
-23.41
-14.34
-8.05
-4.25
-1.87
0.63
4.82
12.12
23.42
38.51
55.83
72.61
85.64
92.46
92.4
86.74
78.33
70.19
64.34
61.19
59.79
58.59
56.3
52.38
47.16
41.9
38.38
37.95
40.87
45.59
48.99
47.44
38.59
22.69
3.33
-13.92
-24.03
-24.69
-17.06
-4.75
8.34
21.11
33.33
45.71
58.36
69.58
75.78
72.99
58.78
33.62
0.84
-34.83
-68.57
-96.71
-116.95
-128.07
-129.55
-121.73
-106.24
-86.31
-66.43
-51.07
-43.35
-44.24
-52.4
-64.85
-77.94
-88.25
-93.31
-92.22
-85.75
-76.22
-66.92
-60.98
-60.27
-64.76
-72.63
-81.23
-88.28
-92.62
-94.28
-93.99
-92.47
-90.04
-86.52
-81.45
-74.13
-63.26
-46.63
-21.28
15.07
61.91
114.21
162.68
196.55
207.95
195.87
167.25
134.37
109.41
99.3
103.07
113.22
119.98
115.66
97.1
65.33
23.69
-24.01
-73.98
-121.63
-160.61
-182.88
-180.87
-150.61
-94.41
-21.26
54.86
118.75
158.24
167.29
146.87
102.75
42.46
-26.55
-97.02
-160.93
-209.17
-232.5
-223.95
-182.02
-113.53
-33.22
40.24
90.46
108.33
93.78
54.1
0.56
-52.65
-91.46
-106.79
-98.64
-74.47
-43.48
-11.86
17.66
43.99
66.16
82.46
90.95
90.77
83.34
72.32
62.06
55.85
55.21
59.76
67.38
74.31
77.54
75.38
67.81
56.01
41.49
25.6
8.96
-8.6
-26.12
-44.15
-62.93
-81.87
-100.21
-117.52
-133.82
-148.4
-159.11
-162.08
-153.22
-130.06
-93.98
-50.64
-8.35
25.23
46.08
54.8
55.34
52.1
48.01
43.77
38.78
32.56
25.69
19.66
15.92
14.88
15.6
16.51
15.86
12.8
7.51
1.04
-5.13
-9.69
-11.98
-12.13
-10.73
-8.69
-6.67
-4.93
-3.02
0.01
5.3
13.73
25.71
40.82
57.77
74.64
89.52
100.93
108.28
111.89
112.59
111.58
110.21
109.75
111.2
114.58
118.16
118.2
109.78
88.67
53.99
9.38
-37.87
-79.3
-108.46
-123.02
-124.82
-116.86
-103.87
-89.1
-73.62
-57.39
-40.68
-24.73
-11.38
-2.05
2.93
4.44
4.25
4.36
6.07
9.71
14.48
18.93
21.54
21.15
17.48
10.87
2.27
-7.25
-17.22
-27.83
-39.93
-54.59
-72.44
-92.58
-114.69
-138.33
-162.8
-186.43
-206.01
-216.85
-214.09
-196.42
-163.9
-121.34
-76.11
-35.18
-2.52
21.87
40.77
57.43
72.74
86.8
98.1
105.6
109.65
111.76
113.48
115.33
116.53
115.67
111.75
104.54
95.16
85.63
77.94
73.22
71.26
70.65
69.52
66.63
61.6
55.34
49.33
44.92
42.67
42.09
42.16
42.07
41.76
41.4
40.83
39.36
35.35
28.06
18.6
10.02
5.75
7.55
13.89
20.26
21.65
15.06
1.1
-16.61
-33.9
-48.61
-61.42
-74.47
-88.7
-101.63
-107.97
-101.91
-80.53
-45.86
-4.58
35.2
67.34
89.55
102.58
107.96
104.94
91.04
64.17
25.61
-18.16
-57.1
-81.57
-86.71
-74.52
-52.65
-30.33
-14.65
-8.04
-8.8
-13.4
-19.07
-24.87
-31.13
-37.98
-44.03
-46.76
-43.41
-32.88
-16.65
1.49
16.93
25.97
27.22
21.76
13.07
5.35
2.08
4.72
12.2
21.18
27.58
28.19
22.1
11.11
-0.78
-9.03
-10.63
-5.02
4.97
14.59
19.41
17.38
9.31
-1.7
-12.04
-19.5
-23.71
-26.03
-28
-30.35
-31.57
-29.77
-23.62
-13.38
-1.14
10.68
20.37
27.57
33.16
38.32
42.89
45.5
43.93
36.06
21.54
1.97
-19.56
-39.3
-53.94
-62.07
-63.77
-59.02
-50.39
-39.95
-29.09
-18.84
-10.46
-3.85
0.36
1.72
-0.18
-6.1
-16.47
-31.17
-48.76
-65.56
-74.31
-70.23
-51.66
-21.22
14.92
49.61
78.75
99.69
111.15
112.25
101.55
78.55
45.27
6.98
-27.89
-50.62
-57.32
-49.79
-33.94
-16.73
-2.91
6.18
11.68
15.67
19.51
23.12
25.94
27.57
28.08
28.08
28.51
30.02
32.88
36.87
41.05
44.36
45.61
44.26
40.18
33.65
25.28
15.78
5.71
-4.84
-15.34
-26.33
-38.07
-50.36
-62.45
-73.14
-81.16
-85.83
-87.19
-86.15
-84.2
-82.62
-82.34
-84
-88.01
-94.33
-101.77
-107.47
-107.18
-96.93
-74.93
-43.23
-7.54
24.92
48.29
60.45
63.17
60.52
56.33
52.62
49.33
45.55
40.89
36.08
32.5
31.16
31.94
33.56
34.42
33.19
29.68
24.73
19.81
16.29
14.85
15.2
16.31
16.85
15.86
13.12
9.22
5.24
2.27
0.93
1.18
2.3
3.32
3.36
2.03
-0.45
-3.4
-5.98
-7.56
-7.97
-7.54
-6.88
-6.61
-7.08
-8.13
-9.25
-9.66
-8.49
-4.87
1.87
11.94
24.78
38.57
50.28
56.4
54.23
43.26
25.82
6.47
-9.55
-18.11
-17.43
-8.27
6.66
23.75
39.44
50.75
55.67
53.28
44
29.39
11.73
-6.78
-24.61
-41.1
-56.32
-70.66
-84.32
-96.61
-105.57
-108.05
-100.34
-79.65
-45.28
0.46
52.14
102.46
144.19
171.92
183.02
177.73
158.23
128.17
92.23
55.59
23.82
2.43
-4.05
6.51
33.19
71.4
114.02
152.97
180.65
191.58
183.51
157.46
116.64
65.58
8.26
-52.61
-112.55
-166.58
-211.26
-245.58
-270.25
-286.49
-293.92
-291.25
-276.77
-249.59
-210.99
-164.44
-114.4
-65.23
-23.2
9.32
29.7
35.58
26.3
4.04
-25.87
-56.02
-76.7
-82.01
-70.88
-47.39
-17.91
11.74
37.85
59.05
75.54
88.08
96.81
102.04
103.91
102.84
99.84
96.33
93.58
92.29
92.56
93.46
93.84
92.34
87.7
79.27
67.31
52.82
37.11
21.37
6.23
-8.05
-21.76
-35.45
-48.99
-61.34
-71.12
-77.37
-80.36
-81.88
-84.12
-88.45
-95.85
-106.04
-118.43
-132.83
-149.06
-166.01
-181.04
-190.27
-184.81
-162.47
-127.53
-89.47
-58.6
-41.34
-38.2
-45.07
-56.48
-68.43
-80.4
-92.66
-104.92
-115.86
-123.01
-124.12
-118.42
-106.72
-91.03
-74.32
-58.13
-42.84
-27.91
-12.49
3.88
21
38.38
55.83
70.1
80.22
86.47
89.71
90.8
90.02
87.02
81.27
72.56
61.11
48.45
36.32
26.12
18.51
13.38
10.09
8.17
7.74
9.52
15.1
26.05
43.43
67.48
97.34
130.93
165.05
195.91
219.82
234.46
239.38
236.17
227.83
217.62
207.8
199.04
190.68
181.87
172.89
165.55
162.8
167.32
180.08
199.36
221.07
239.79
250.23
248.49
232.38
201.28
155.67
97.05
28.03
-47.37
-123.75
-194.59
-253.17
-293.58
-311.86
-306.71
-279.81
-235.33
-179.06
-116.6
-51.95
13.16
78.48
143.78
206.73
262.44
304.48
326.84
326.85
306.57
272.3
232.04
192.88
158.52
129.22
103.32
78.26
52.53
25.69
-2.34
-32.45
-66.46
-107.05
-155.33
-209.04
-263.04
-310.37
-344.98
-364.19
-369.57
-365.01
-355.31
-343.19
-323.8
-292.85
-249.05
-195.51
-138.11
-85.49
-40.07
-2.87
24.14
37.67
33.89
11.25
-27.11
-72.24
-111.76
-134.12
-134.08
-113.98
-81.32
-45.13
-11.68
16.55
40.15
60.57
78.64
93.28
102.93
106.75
104.86
98.76
90.51
81.51
72.19
61.72
47.82
28.06
0.86
-34.42
-77.45
-127.66
-183.04
-239.68
-291.65
-332.26
-355.79
-359.46
-344.84
-313.07
-269.88
-221.41
-171.68
-121.69
-70.25
-15.46
43.98
106.87
169.3
225.41
270.36
301.64
319.11
324.17
318.96
305.65
286.58
264.28
240.81
218.04
197.34
179.11
162.99
148.31
134.51
121.51
110.13
101.53
96.65
94.99
93.75
88.26
73.76
47.55
10.78
-31.56
-72.4
-105.02
-125.46
-133.53
-132.09
-125.39
-117.17
-109.33
-101.77
-93.12
-81.69
-66.62
-48.4
-28.82
-10.22
5.51
17.61
26.06
31.09
32.59
30.06
23.3
13.09
1.38
-9.25
-16.61
-19.61
-18.41
-13.97
-7.43
0.22
8.22
15.39
20.52
22.85
22.67
21.68
22.15
25.49
31.05
35.94
36.07
28.38
12.38
-9.54
-33.04
-53.83
-69.19
-78.58
-82.99
-84
-83.03
-81.17
-79.29
-77.44
-74.39
-67.53
-54.14
-32.99
-5.57
24.13
51.34
72.31
86.01
93.63
97.13
97.05
92.21
81.18
64.38
45.15
28.08
16.76
11.77
10.8
9.5
4.42
-4.75
-14.67
-19.76
-15.96
-1.25
24.26
59.61
102.39
148.94
194.67
234.84
265.26
280.53
278.02
255.97
219.38
176.41
135.27
101.95
79.45
67.78
60.62
51.47
36.7
17.09
-5.36
-29.7
-56.84
-88.76
-127.3
-178.95
-247.87
-333.29
-428.53
-524.99
-615.3
-694.59
-759.97
-776.52
-722.93
-602.7
-444.4
-281.59
-136.26
-16.54
77.81
150.4
205.55
242
259.25
259.66
250.5
238.81
228.59
220.14
211.44
199.78
178.95
146.99
106.42
63.8
26.16
-2
-19.58
-28.02
-30.15
-31.8
-37.98
-51.02
-68.6
-84.76
-91.94
-83.64
-57.15
-15.32
32.56
75.45
104.37
116.62
115.41
107.05
97.6
90.76
87.43
86.24
85.15
81.56
73.12
57.79
34.42
4.21
-28.52
-57.47
-76.33
-79.73
-68.78
-47.89
-22.45
3.23
26.86
47.47
64.5
77.23
85.1
87.92
87.27
85.64
85.33
87.64
92.15
96.64
98.29
94.63
84.18
67.52
46.74
24.63
4.09
-13.47
-28.09
-40.84
-53.07
-65.71
-78.44
-89.9
-98.31
-102.41
-102.11
-98.61
-93.86
-89.86
-88.11
-89.33
-93.71
-100.76
-108.79
-114.71
-114.3
-103.58
-80.9
-48.4
-11.81
21.56
45.78
58.55
61.53
58.75
54.22
50.02
46.27
42.14
37.23
32.22
28.42
26.77
27.13
28.29
28.66
26.98
23.03
17.66
12.23
8.02
5.63
4.74
4.37
3.32
0.86
-3.13
-8.06
-13.09
-17.42
-20.73
-23.23
-25.53
-28.29
-31.88
-36.32
-41.31
-46.45
-51.42
-56.18
-60.93
-65.92
-71.38
-77.16
-82.87
-87.88
-91.52
-93.1
-92.34
-88.82
-82.33
-72.79
-60.01
-44.12
-25.47
-4.85
16.69
37.91
57.64
75.03
89.06
100.16
109.11
116.62
122.91
127.79
130.64
130.82
128.08
122.9
116.58
110.59
106.59
104.64
104.04
103.52
101.88
98.39
93.25
87.55
82.46
79.04
77.99
79.84
84.56
90.95
96.02
95.31
84.36
60.84
26.43
-13.22
-50.22
-77.7
-92.51
-95.95
-92.32
-86.26
-80.68
-76
-71.31
-65.73
-59.4
-53.46
-49.22
-47.22
-46.99
-47.44
-47.12
-45.21
-41.58
-36.73
-31.61
-27.17
-24.02
-22.26
-21.52
-20.87
-19.44
-16.67
-12.7
-8.38
-5.16
-4.68
-8.23
-16.56
-29.91
-48.5
-72.05
-98.66
-124.71
-144.99
-154.21
-149.29
-131.69
-105.42
-76.95
-51.99
-33.06
-19.16
-7.13
5.9
20.83
36.06
49.65
60.1
67.54
73.39
79.05
84.9
90
92.77
91.81
87.04
79.52
71.81
66.05
63.88
65.65
70.18
75.37
79.15
80.45
79.67
77.78
76.18
75.9
76.78
77.51
76.31
71.52
62.24
47.42
27.89
4.7
-20.17
-43.45
-61.81
-72
-72.53
-64.94
-53.6
-44.11
-40.79
-44.49
-52.23
-59
-60.32
-54.44
-42.73
-28.2
-13.42
0.74
15.07
30.64
47.02
61.76
71.35
73.05
66.38
53.27
37.18
21.27
7.52
-3.67
-12.9
-21.07
-28.85
-36.65
-44.96
-53.97
-63.37
-71.64
-75.94
-72.66
-58.93
-34.16
-0.94
34.93
66.76
88.86
98.66
97.13
87.65
74.06
58.85
42.94
25.48
5.71
-17.24
-42.71
-68.23
-90.09
-104.5
-108.81
-96.65
-64.9
-12.61
56.39
136.04
219.12
297.76
363.59
408.61
427.44
418.82
386.74
335.12
269.47
196.27
121.81
50.62
-15.48
-76.56
-133.88
-188.81
-247.58
-315.34
-393.28
-477.52
-561.63
-639.44
-706.13
-758.8
-765.09
-706.63
-588.59
-438.55
-287.91
-156.45
-50.67
31.06
93.24
140.64
172.39
187.85
189.3
182.41
173.6
167.09
164.48
165.7
169.95
172.72
170.85
164.09
155.16
147.19
141.34
136.96
132.47
126.39
115.83
99.34
77.51
52.84
28.92
7.17
-12.19
-29.54
-45.46
-61.68
-79.31
-97.46
-112.61
-119.45
-113.38
-92.47
-59.14
-19.85
16.72
43.4
57.27
60.08
56.54
51.11
46.29
42.28
38.15
33.38
28.56
25.03
23.82
24.86
26.87
28.21
27.51
24.5
20
15.4
12.05
10.65
10.98
12.08
12.79
12.25
10.3
7.39
4.34
1.94
0.63
0.36
0.68
1.03
0.94
0.2
-1.18
-3.01
-5.05
-6.99
-8.59
-9.57
-9.7
-8.78
-6.71
-3.48
0.77
5.91
11.94
18.86
26.68
35.26
44.18
52.68
59.73
64.42
65.62
63.39
58.19
50.81
42.4
34.36
28.24
25.16
25.23
26.98
27.34
22.6
10.1
-10.59
-37.08
-64.92
-89
-104.98
-110.39
-104.73
-89.22
-66.12
-38.44
-9.67
16.98
39.23
56.57
70.11
81.82
92.94
102.91
109.36
108.92
99.12
79.83
53.7
25.14
-0.93
-20.64
-32.17
-35.74
-33.34
-27.5
-20.79
-15.1
-11.5
-8.8
-3.3
10.42
37.25
78.05
128.23
178.01
215.48
230.32
218.39
182.95
132.83
78.49
27.37
-16.95
-54.13
-85.07
-110.96
-132.03
-148.32
-160.87
-172.07
-186.4
-207.77
-238.3
-272.92
-306.55
-334.21
-352.32
-359.57
-349.42
-320.25
-273.94
-215.31
-150.3
-84.96
-23.72
30.7
76.74
113.68
140.41
157.08
165.22
167.5
166.4
163.88
161.1
158.48
156
152.69
148.17
142.64
136.64
130.14
122.56
112.68
99.44
82.41
61.47
37.38
11.31
-15.59
-41.41
-65.9
-89.28
-111.78
-133.67
-155.47
-177.15
-197.26
-212.49
-218.2
-210.38
-187.61
-152.56
-111.89
-74.09
-46.05
-30.52
-25.86
-27.57
-31.2
-33.89
-34.81
-33.83
-30.53
-23.78
-12.18
4.92
26.7
50.93
73.96
93.27
107.76
117.59
123.85
127.85
130.41
131.63
130.92
127.53
121.31
112.75
102.94
93.26
84.89
78.4
73.61
69.74
65.69
60.9
55.3
49.29
43.69
39.2
36.18
34.4
33.2
31.71
29.49
26.53
23.26
20.49
18.92
18.85
19.98
21.92
23.5
24.24
24.16
23.76
23.78
24.73
26.73
29.6
33.11
37
40.8
43.75
43.86
39.23
28.78
13.03
-5.83
-24.62
-40.48
-51.89
-58.85
-62.5
-63.9
-63.29
-59.76
-52.27
-40.54
-26.06
-11.94
-1.43
3.47
3.13
-0.13
-3.29
-4.59
-4.25
-4.14
-6.56
-12.45
-20.64
-28.46
-33.23
-33.89
-31.65
-29.29
-29.69
-34.91
-44.88
-57.3
-68.35
-73.76
-70.25
-56.27
-32.37
-0.84
33.96
67.2
94.05
110.51
114.12
104.42
83.39
53.69
22.17
-5.27
-25.01
-36.28
-40.52
-39.86
-36.06
-29.59
-20.36
-8.62
3.6
12.99
17
13.69
2.77
-14.47
-34.45
-52.06
-59.99
-53.31
-30.46
4.71
42.77
71.56
80.41
66.04
32.5
-10.48
-51.68
-82.25
-98.4
-101.47
-92.85
-78.09
-60.52
-41.34
-20.92
-0.57
17.4
30.47
37.36
38.97
37.35
35.56
35.81
38.65
43.06
47.28
49.73
49.29
46.09
40.29
32.59
23.37
12.75
0.72
-12.46
-25.57
-38.13
-49.57
-59.77
-68.62
-76.43
-83.97
-92.25
-101.63
-110.97
-117.22
-115.84
-103.01
-77.62
-42.79
-5.17
27.54
49.96
61.07
63.71
62.67
61.63
61.68
61.53
59.42
54.59
48.33
43.01
40.56
41.65
45.81
51.85
58.32
63.56
65.28
61.01
48.75
28.31
2.46
-23.55
-43.72
-53.69
-51.78
-40.7
-24.75
-7.87
7.69
21.51
33.91
44.83
53.48
58.93
60.66
59.14
55.51
50.83
45.89
40.78
35
27.87
18.82
7.44
-6.09
-20.73
-35.77
-50.09
-62.57
-72.24
-78.8
-82.4
-83.88
-84.63
-85.25
-86.48
-88.85
-93.01
-99.23
-106.68
-112.76
-113.39
-104.39
-83.62
-52.9
-17.64
14.98
38.97
51.88
55.14
52.63
48.22
44.12
40.42
36.32
31.43
26.43
22.61
20.93
21.27
22.43
22.85
21.2
17.23
11.8
6.3
2.07
-0.23
-0.87
-0.85
-1.35
-3.3
-6.87
-11.49
-16.21
-20.07
-22.57
-23.82
-24.42
-25.09
-26.36
-28.28
-30.21
-31.13
-29.86
-25.59
-17.96
-7.31
5.51
19.33
33.08
46.08
58.02
68.87
78.51
86.53
92.13
94.34
92.28
85.74
75.64
63.8
52.49
43.58
37.94
34.73
32.55
29.66
24.59
17.02
7.72
-1.81
-9.9
-15.01
-15.97
-12.28
-4.93
2.97
6.81
1.78
-14.81
-41.64
-73.04
-100.87
-117.79
-119.69
-108.12
-88.34
-66.31
-45.85
-27.89
-11.61
3.71
17.45
27.78
32.87
32.44
27.96
22.24
18.18
17.14
18.82
21.34
22.4
20.3
14.53
5.21
-7.54
-23.93
-43.81
-65.39
-84.81
-96.83
-97.09
-83.95
-60.97
-35.07
-13.91
-2.65
-1.97
-8.53
-17.4
-24.54
-27.8
-26.91
-21.95
-12.64
1.43
19.17
36.56
47.09
44.65
27.59
0.8
-23.66
-32.87
-19.45
14.49
58.16
98.14
123.94
132.11
126.25
113.53
100.09
88.49
78.17
67.44
55.59
43.63
33.67
27.82
27.18
31.28
38.28
46.29
54.08
61.37
68.08
73.22
74.17
67.27
49.51
20.98
-14.1
-48.36
-74.23
-87.48
-88.86
-83.19
-76.4
-72.37
-71.11
-69.53
-63.83
-51.86
-34.27
-13.58
7.4
26.93
44.69
61.2
76.74
90.79
102.13
109.65
112.99
112.96
111.16
109.25
108.1
107.26
104.92
98.65
86.21
67.33
43.83
19.12
-2.75
-18.28
-25.42
-24.02
-15.52
-2.64
11.64
24.66
34.81
41.83
46.59
50.37
53.97
57.07
58.13
55.36
47.53
34.89
19.2
3.33
-9.34
-15.3
-11.38
4.39
32.42
70.92
115.81
161.28
201.02
229.64
243.87
243.21
228.76
203.51
171.69
138.05
107.02
81.92
64.42
54.47
50.79
49.67
47.57
41.86
31.4
16.42
-2.1
-23.19
-46.37
-71.59
-102.06
-140.67
-188.97
-246.29
-309.91
-376.2
-441.87
-505.05
-565.17
-626.4
-692.86
-766.81
-847.12
-929.22
-1006.39
-1071.51
-1118.9
-1121.39
-1061.35
-933.3
-747.63
-527.24
-299.22
-86.03
98.8
250.01
368.46
454.47
509.55
536.11
538.49
522.45
494.28
459.92
423.68
388.31
352.23
312.8
267.52
215.93
159.35
99.81
42.08
-11.45
-58.65
-97.91
-125.55
-140.57
-138.06
-114.85
-72.39
-16.67
43.85
102.17
153.9
198.36
237.27
269.06
292.48
306.48
310.94
306.84
296.63
282.81
267.08
249.87
231.12
210.66
188.67
166.07
144.22
124.74
108.81
96.65
87.29
79.32
71.5
63.02
53.8
44.5
36.2
29.87
25.86
23.69
22.36
20.91
18.56
15.15
11.19
7.64
5.52
5.31
6.84
9.31
11.65
13.03
13.08
12.15
10.99
10.48
11.3
13.86
18.3
24.38
31.06
36.19
37.02
31.15
17.95
-0.75
-21.08
-38.64
-50.46
-55.97
-57.31
-57.04
-56.86
-56.8
-55.58
-51.76
-44.81
-35.67
-26.38
-19.29
-16.29
-18.45
-25.69
-36.64
-48.86
-59.3
-65.16
-64.55
-57.21
-44.61
-29.46
-14.89
-3.35
4.03
7.52
8.61
9.17
10.91
14.69
20.33
26.6
31.88
34.74
34.62
32.26
29.25
27.44
28.16
31.6
36.77
42.02
46.07
48.74
50.98
54.22
59.78
68.1
78.57
89.9
100.87
111.01
120.47
129.53
137.15
141.35
139.97
131.69
117.14
98.95
81.94
70.81
68.11
71.69
76.93
78.68
73.44
60.3
40.74
17.56
-6.89
-31.33
-58.13
-89.59
-126.99
-169.94
-216.93
-266.61
-318.07
-369.72
-417.54
-457.2
-481.78
-484.65
-463.67
-423.79
-376.53
-335.49
-310.54
-286.08
-248.99
-191.86
-118.12
-39.76
30.53
85.19
123.41
149.34
168.86
183.46
192.3
194.42
189.7
179.83
167.29
154.71
144
135.91
128
116.88
101.55
82.39
61.07
39.36
18.64
-0.44
-17.92
-33.18
-49.35
-68.49
-90.29
-111.27
-125.5
-126.83
-111.69
-81.35
-42.57
-5.15
22.92
37.96
41.24
37.44
31.74
27.39
25.17
24.6
24.66
25.97
29.55
35.63
43.62
51.85
58.46
62.06
63.11
62.44
61.49
61.71
62.84
64.19
64.78
63.94
61.83
60.08
60
62.63
68.71
76.84
85.71
94.14
101.65
104.02
102.51
98.85
94.78
95.74
100.1
105.21
107.79
104.48
92.62
72.13
44.77
10.21
-24.06
-51.61
-69.32
-78.15
-81.39
-82.18
-81.42
-79.23
-74.96
-68.59
-62.94
-61.33
-65.79
-75.97
-89.27
-101.49
-108.95
-109.38
-101.84
-86.41
-64.79
-39.47
-13.22
11.23
31.73
46.55
54.9
57.05
53.18
43.52
28.32
8.08
-16.07
-41.86
-66.1
-85.02
-94.94
-93.56
-80.7
-58.18
-29.24
2.62
34.89
66.51
97.6
128.74
159.96
190.14
217.26
238.93
253.11
258.61
254.51
240.16
215.53
181.79
141.29
96.85
50.52
2.78
-47.23
-101.15
-159.36
-218.6
-271.17
-306.83
-316.42
-295.4
-245.21
-171.83
-84.66
5.35
87.49
152.92
195.47
212.51
205.04
174.2
128.99
84.16
52.03
36.24
33.26
37.65
45.45
51.68
53.59
49.83
39.72
23.34
1.29
-25.33
-56.13
-86.79
-115.97
-145.8
-178.03
-212.98
-249.31
-285.03
-317.32
-343.52
-361.57
-353.61
-311.7
-240.56
-155.6
-73.45
-5.15
46.19
82.25
106.96
123.92
133.57
136.14
132.45
124.1
111.01
94.57
76.14
57.27
39.27
20.94
1.09
-21.08
-40.61
-57.02
-70.82
-83.06
-94.85
-106.86
-119.58
-130.96
-136.31
-129.99
-109.25
-75.51
-34.85
4.19
34.12
50.85
55.1
51.08
43.84
36.32
29.46
22.94
16.8
11.85
9.4
10.45
14.92
21.97
29.87
37.12
43.24
48.84
54.84
62.27
71.53
82.09
91.28
98.24
102.4
103.73
102.85
100.24
96.6
92.27
87.33
81.57
75.07
67.79
59.86
52.74
45.38
37.36
28.56
19.09
9.46
0.78
-6.1
-11.57
-14.93
-16.76
-17.74
-18.44
-19
-18.44
-15.94
-10.83
-2.55
9.19
23.72
39.67
54.8
65.89
68.3
61.16
46.32
28.59
14.8
10.71
18.88
37.75
61.95
84.7
100.27
104.91
97.32
78.45
51.36
18.37
-16.52
-49.02
-75.15
-92.31
-100.49
-101.71
-99
-95.38
-92.9
-92.06
-92.45
-92.79
-91.69
-88.62
-83.77
-78.07
-73.03
-70
-67.99
-66.96
-66.39
-62.84
-53.57
-37.32
-14.99
10.3
33.95
51.64
60.27
59.58
51.91
40.61
28.92
18.97
11.33
5.44
0.82
-3.44
-7.92
-12.64
-17.27
-21.34
-24.25
-25.51
-25.15
-23.74
-22.43
-22.09
-22.61
-23.06
-21.7
-16.68
-6.96
7.08
23.58
39.99
53.44
61.63
63.58
60.04
53.26
45.98
40.56
38.12
38.18
38.88
37.88
33.19
23.98
10.92
-4.17
-19.02
-31.38
-39.98
-44.94
-47.76
-50.58
-55.28
-62.09
-70.71
-80.25
-89.36
-97.04
-103.17
-108.28
-112.71
-115.94
-116.36
-111.85
-100.46
-80.2
-49.87
-10.04
36.38
84.51
128.52
162.46
181.43
182.17
165.66
136.89
102.82
69.64
40.61
15.56
-8.3
-33.89
-62.04
-87.32
-99.55
-88.81
-50.4
13.34
95.32
187.41
283.13
365.8
416.19
420.24
376.28
294.56
192.52
90.66
8.08
-42.93
-63.3
-64.22
-58.59
-57.64
-68.43
-93.03
-129.45
-174.1
-216.11
-245.31
-252.2
-231.3
-184.05
-119.38
-51.45
5.03
40
51.09
41.55
19.81
-6.2
-30.88
-51.61
-67.84
-79.49
-86.36
-84.42
-74.91
-60.83
-45.5
-31.56
-20.23
-11.24
-3.3
5.05
14.78
24.53
32.52
37.36
38.64
37.13
34.45
32.52
32.69
35.59
39.77
43.27
44.21
41.7
36.09
28.68
21.25
14.65
9.66
5.36
0.17
-7.44
-18.2
-31.67
-46.39
-59.21
-69.41
-76.62
-81.64
-85.7
-89.97
-95.35
-102.4
-111.29
-121.38
-130.9
-136.17
-133.05
-118.5
-92.55
-59
-24.33
4.76
24.09
33.18
35
33.67
32.17
31.65
31.65
31.6
31.48
32.19
34.58
38.91
44.34
49.24
51.96
51.61
48.49
43.97
39.53
36.29
34.7
34.28
34
33.04
31.07
28.46
26.38
25.85
27.51
31.29
36.55
42.04
46.63
49.56
50.62
50.64
50.15
49.52
48.84
48.04
46.45
43.75
39.94
33.17
25.29
17.95
12.36
9.16
10.09
14.45
21.48
30.11
38.91
46.62
51.83
54.03
53.79
52.68
51.84
51.9
52.65
53.5
54.47
55.94
58.79
61.79
63.99
63.69
59.65
51.66
41.18
31.12
24.19
21.89
23.74
27.95
31.73
32.41
27.82
16.15
-3.63
-31.25
-64.43
-98.68
-127.82
-146.02
-149.64
-138.6
-116.76
-90.32
-65.63
-47.24
-37.05
-34.45
-37.81
-45.57
-56.98
-72.59
-92.75
-116.09
-138.93
-156.06
-162.36
-154.45
-131.47
-94.51
-46.39
11.33
78.87
156.37
240.67
323.8
394.36
441.54
459.47
446.65
408.56
355.57
298.89
246.17
199.81
158.57
120.51
84.76
47.18
4.93
-42.18
-91.73
-140.99
-188.38
-233.25
-275.04
-313.09
-352.8
-398.77
-451.86
-508.49
-563.92
-614.64
-658.62
-694.57
-684.8
-607.78
-469.85
-303.51
-143.84
-11.24
89.63
162.63
214.21
250.54
270.77
274.22
263.65
244.61
223.67
204.91
189.39
176.32
164.36
147.81
122.62
88.7
56.31
31.21
15.24
7.09
4.05
3.59
1.38
-4.87
-14.37
-23.9
-30.93
-34.39
-34.97
-34.19
-33.62
-35.93
-43.03
-55.03
-69.48
-82.48
-88.61
-82.82
-62.67
-30
8.63
44.66
71.09
85.13
88.03
84.04
77.61
71.36
65.69
59.85
53.38
46.9
41.72
38.65
37.58
37.38
36.59
33.96
29.34
23.57
18.1
14.24
12.56
12.84
14.23
15.81
16.92
17.48
17.83
18.4
19.54
21.07
22.55
23.57
23.96
23.82
23.4
22.8
21.54
19.21
15.33
9.85
3.4
-2.63
-6.7
-7.7
-5.56
-1.3
3.48
7.19
9.24
10.16
11.49
15.02
22.06
32.86
46.34
60.23
71.44
76.67
73.25
60.19
38.86
13.45
-9.77
-24.14
-25.21
-12.94
7.71
28.58
41.66
42.55
32.15
15.68
-0.2
-10.62
-14.29
-13.1
-9.93
-6.61
-2.97
2.32
10.33
21.11
34.08
48.85
65.65
85.41
108.97
136.11
165.04
192.14
212.92
223.26
220.61
204.7
178.21
146.28
115.04
89.85
73.2
64.87
62.77
64.34
67.41
71.03
75.01
79.25
83.21
84.57
80.93
70.37
54.53
35.01
13.51
-8.79
-31.45
-54.63
-80.81
-112
-148.81
-190.14
-233.92
-277.71
-319.71
-359.06
-395.81
-433.01
-473.12
-516.8
-562.26
-606.07
-644
-672.34
-688.61
-675.43
-623.15
-530.93
-408.14
-270.81
-135.39
-13.56
88.95
171.02
234.26
278.88
305.86
317.31
316.75
308.51
297.06
285.95
277.38
272.22
268.15
262.58
253.61
240.94
225.59
209.62
195.1
183.38
174.64
166.77
157.12
143.51
125.02
102.09
76.55
50.79
26.74
5.38
-14.12
-33.43
-54.11
-75.6
-98.39
-122.58
-147.65
-172.08
-192.65
-204.89
-204.31
-188.61
-159.59
-123.11
-87.15
-58.69
-40.94
-32.73
-29.95
-28.15
-24.63
-18.95
-11.74
-3.52
6.13
18.24
33.46
51.31
70.08
87.6
100.69
108.81
112.66
113.73
113.6
113.28
112.9
111.82
109.16
104.29
97.39
89.16
80.7
73.11
66.97
62.36
58.8
55.52
51.86
47.71
43.18
38.66
34.63
31.41
29.09
27.45
26.08
24.55
22.67
20.35
17.72
15.43
13.53
12.11
11.1
10.2
8.91
6.88
4.18
0.7
-3.09
-6.55
-9.03
-10.28
-10.56
-10.62
-11.23
-12.92
-15.63
-18.57
-20.54
-20.41
-17.74
-13.07
-7.75
-3.31
-0.85
-0.41
-0.97
-0.92
1.27
6.43
14.38
23.94
33.05
39.2
40.13
34.55
23.08
8.48
-4.95
-12.67
-11.35
0.14
20.51
46.26
71.86
91.13
98.37
89.77
64.92
27.35
-16.59
-59.81
-96.54
-123.45
-138.52
-139.53
-123.6
-88.72
-36.65
24.78
82.4
122.09
134.1
117.86
81.76
38.61
-0.4
-30.09
-51.25
-67.3
-77.72
-79.82
-69.81
-46.21
-12.57
23
50.82
64.42
63.23
52.14
37.82
25.65
17.41
11.5
4.59
-6.23
-22.11
-42.31
-65.01
-88.47
-111.65
-134.64
-158.49
-184.23
-211.61
-238.28
-260.05
-272.01
-270.3
-253.12
-221.13
-177.09
-125.19
-70.42
-17.92
27.62
62.87
86.48
99.5
104.91
106.54
107.8
111.1
117.64
127.83
141.51
158
175.78
192.46
204.98
210.29
206.3
192.46
170.16
142.5
113.65
87.95
68.92
58.49
56.6
61.54
70.68
81.53
92.4
102.39
110.81
116.43
117.24
110.83
95.52
71.29
40.23
6
-27.33
-56.43
-79.16
-94.52
-102.24
-102.42
-95.75
-83.81
-69.24
-55.19
-44.26
-37.58
-34.48
-33.07
-31.46
-28.96
-26.37
-25.42
-27.53
-32.84
-40.08
-47.24
-52.6
-55.34
-55.63
-53.88
-50.14
-43.97
-34.85
-22.97
-9.6
3.26
13.74
20.77
24.55
26.18
26.83
27.01
26.34
23.82
18.52
10.08
-1.28
-14.64
-28.77
-42.3
-53.99
-62.82
-68.01
-68.96
-65.25
-57.17
-45.4
-31.25
-16.74
-4.42
3.27
5.02
1.26
-6.19
-15.98
-27.12
-39.48
-53.21
-68.4
-84.49
-100.16
-113.81
-124.26
-132.66
-140.3
-147.64
-153.65
-156.68
-155.69
-150.88
-143.69
-135.76
-129.77
-126.5
-124.88
-122.74
-118.89
-114.18
-110.95
-111.59
-105.4
-85.53
-50.82
-6.49
40.63
84.97
122.6
150.84
168.18
175.54
174.36
167.8
159.38
152.43
148.81
148.98
152.98
160.37
170.75
181.46
189.92
190.77
179.47
153.75
114.92
68.02
19.82
-21.67
-49.86
-60.42
-52.9
-30.21
1.12
31.98
52.45
53.35
30.46
-14.03
-72.09
-133.63
-185.97
-218.14
-224.47
-198.08
-144.61
-80.42
-22.91
18.6
43.69
56.78
62.1
62.28
58.82
52.96
46.78
43.17
44.14
49.49
57.14
64.27
69.96
73.66
76.5
80.71
89.43
104.97
126.85
150.96
170.1
176.28
159.04
118.69
63.49
6.38
-40.35
-69.98
-83
-85.26
-83.82
-83.22
-84.38
-87.92
-92.73
-97.89
-102.55
-105.05
-102.52
-91.76
-70.41
-38.42
0.56
40.81
77.2
106.41
127.33
140.73
143.93
138.08
125.9
112.55
98.02
82.09
65.2
48.45
33.24
21.77
16.85
19.94
30.35
45.44
62.4
78.5
91.66
100.55
104.6
104.27
100.07
92.46
81.77
68.91
54.96
40.82
27.11
14.11
2.08
-9.12
-19.78
-30.23
-40.32
-49.82
-58.67
-67.1
-75.47
-83.87
-92.08
-99.47
-105.24
-108.56
-109.16
-107.57
-105
-102.92
-102.59
-104.71
-109.15
-114.92
-120.31
-123.35
-122.47
-117.19
-108.53
-98.92
-91.71
-89.87
-94.93
-106.46
-122.44
-140.14
-156.97
-171.08
-181.45
-188.02
-191.12
-191.12
-188.12
-181.7
-170.82
-153.86
-129.21
-96.02
-55.43
-10.29
35.53
78.1
114.23
141.99
161.14
173.25
181.33
187.77
195.19
206.37
223.77
248.29
278.5
310.9
341
364.76
377.26
376.99
367.03
353.64
342.33
334.35
326.28
312.24
287
243.93
181.35
103.6
19.19
-63.91
-141.28
-211.74
-275.46
-332.44
-388.06
-446.38
-507.86
-568.82
-624.91
-673.64
-714.39
-747.15
-734.81
-655.81
-516.13
-348.44
-188.22
-55.88
44.01
115.77
166.74
204.23
228.24
238.2
235.61
225.69
213.92
203.55
195.58
190.17
187.5
183.24
173.84
157.36
136.45
114.41
93.22
73.63
56.12
41.35
26.91
13.36
-1.02
-15.81
-29.89
-42.7
-54.52
-66.06
-77.77
-90.29
-102.09
-109.39
-106.71
-90.53
-61.99
-26.83
7.01
32.64
46.4
49.26
44.96
38.18
31.96
27.03
22.81
19.07
16.39
16.09
19.12
25.28
32.98
40.43
46.11
49.63
51.84
53.87
56.8
60.94
65.49
68.97
69.95
67.61
61.92
54
45
36.13
28.11
20.78
13.39
5.64
-2.62
-12.22
-21.68
-29.87
-35.95
-39.92
-41.56
-42.31
-43.1
-44.22
-45.36
-45.64
-44.72
-42.04
-37.93
-33.29
-29.24
-26.34
-24.53
-23.26
-21.42
-17.87
-10.87
0.48
15.61
32.17
46.74
55.52
55.75
47.21
27.45
0.3
-27.39
-47.66
-53.9
-42.2
-11.77
35.11
94.45
161.32
231
297.46
353.55
392.16
407.75
398.54
365.99
314.89
251.91
184.17
116.57
51.95
-7.9
-61.18
-105.07
-138.55
-161.29
-172.73
-171.7
-157.25
-129.06
-87.56
-34.24
29.33
96.94
160.4
211.73
243.91
251.87
233.26
189.9
127.71
56.81
-16.94
-90.31
-161.69
-223.51
-264.96
-279.34
-268.08
-251.56
-235.41
-223.93
-221.2
-223
-228.1
-236.01
-246.76
-259.3
-271.53
-267.55
-240.63
-193.16
-134.44
-75.77
-24.71
15.19
44.38
65.06
81.22
92.47
97.51
96.03
88.7
77.34
62.21
45.58
29.38
15.9
3.74
-9.46
-25.35
-44.81
-63.4
-81.4
-99.42
-117.3
-132.17
-140.3
-137.38
-120.19
-89.12
-49.09
-8.75
24
44.47
52.97
53.04
49.04
44.29
40.04
36.31
32.37
28.89
27.13
28.68
34.65
43.97
54.73
64.97
73.38
79.42
83.89
87.86
91.02
94.79
99.29
103.71
106.49
106.17
101.95
95.73
87.64
79.19
72.97
70.44
71.76
75.99
81.31
85.99
89.08
90.15
90.04
91.04
94.62
101.45
111.57
123.96
136.75
146.98
149.86
140.91
118.5
83.45
39.75
-6.21
-48.3
-82.56
-104.75
-114.68
-121.33
-130.27
-144.68
-166.3
-192.96
-223.92
-259.09
-298.6
-342.69
-389.8
-434.73
-470.52
-490.24
-489.12
-466.85
-427.36
-377.5
-325.1
-275.9
-231.39
-190.19
-149.51
-106.59
-60.07
-9.68
44.21
101.01
160.68
224.07
291.51
361.7
431.12
493.85
542.81
571.84
577.38
559.69
522.83
472.62
414.38
351.33
284.32
213.5
140.26
68.4
4.05
-46.07
-76.83
-85.9
-73.7
-42.6
3.9
61.33
123.79
183.81
233.35
265.62
276.75
266.68
238.51
196.86
146.13
89.38
28.24
-36.61
-104.74
-175.07
-245.09
-310.3
-364.47
-400.97
-414.78
-404.04
-370.79
-319.78
-257.07
-188.45
-118.62
-51.26
9.76
59.4
91.74
101.41
86.28
48.3
-6.43
-68.9
-128.63
-176.29
-205.68
-214.39
-203.74
-177.21
-141.04
-103.14
-71.38
-50.52
-42.4
-46.72
-61.81
-84.74
-109.64
-130.38
-141.53
-139.52
-121.13
-85.42
-34.07
29.76
102.45
182.16
263.97
338.28
392.4
417.7
411.7
378.76
328.23
259.91
182.61
108.86
51.04
1.49
-49.63
-105.79
-163.06
-212.9
-245.03
-247.83
-215.29
-150.3
-63.9
31.25
122.39
198.27
250.44
266.73
243.15
189.11
123.2
62.18
15.71
-14.69
-31.78
-38.98
-40.84
-37.14
-28.42
-18.8
-14.22
-18.08
-30.56
-48.85
-69.58
-87.37
-99.7
-101.26
-91.87
-76.11
-59.99
-48.36
-42.15
-43.42
-48.76
-55.71
-64.25
-77.61
-100.95
-133.63
-175.37
-224.79
-269.08
-298.28
-307.76
-297.05
-267.82
-222.32
-164.32
-101.15
-41.78
6.01
37.42
52.46
55.72
53.03
48.79
44.68
39.92
33.77
28.01
23.81
21.78
22.1
24.19
26.75
28.17
26.9
22.3
16
9.83
5.19
3.24
4.72
9.78
17.93
28.35
40.95
54.94
71.11
90.45
113.64
140.7
170.77
202.1
232.77
261.39
289.35
317.07
342.21
360.4
367.69
363.31
351.03
337.62
313.47
273.76
215.63
138.04
42.99
-62.4
-165.97
-253.88
-315.98
-353.02
-370.69
-377.62
-383.02
-393.11
-408.81
-425.66
-436.3
-434.06
-409.92
-360.45
-288.74
-202.85
-112.48
-27.29
43.64
91.86
111.08
100.45
66.95
24.61
-9.54
-21.77
-7.34
28.09
72.13
113.01
146.31
175.47
208.36
251.5
305.41
363.74
415.95
451.7
464.87
455.58
426.3
379.93
318.89
245.37
162.74
76.41
-6.54
-84.25
-147.51
-187.44
-200.86
-192.54
-172.09
-149.33
-130.95
-119.93
-115.35
-112.94
-108.77
-100.12
-85.97
-67.27
-47.22
-29.45
-20.55
-26.97
-51.59
-92.73
-143.26
-192.44
-229.03
-244.85
-236.35
-206.16
-161.08
-108.66
-55.66
-6.65
36.37
71.86
100.57
126.85
155.17
187.49
221.53
250.91
267.58
264.76
240.81
192.33
126.57
57.52
-1.26
-43.46
-70.56
-87.66
-99.77
-108.79
-114.14
-113.12
-103.26
-83.27
-53.47
-15.24
28.34
71.75
110.7
143.01
169.22
191.35
211.83
231.18
245.99
256.59
257.66
245.03
218.03
180.41
138.59
99.31
65.87
41.65
24.81
10.79
-4.29
-18.52
-29.96
-39.13
-48.4
-63.25
-82.13
-104.87
-128.01
-144.58
-147.7
-134.23
-109.93
-85.04
-72.28
-72.65
-88.47
-117.53
-153.93
-190.95
-221.99
-247.72
-250.12
-258.25
-267.56
-281.12
-301.42
-328.85
-361.92
-396.21
-433.17
-474.37
-519.87
-525.64
-463.9
-333.27
-159.75
1.34
140.92
257.22
347.22
407.25
438.04
436.55
404.34
348.77
281.37
216.99
161.36
111.84
61.84
9.69
-48.43
-113.48
-182.36
-248.35
-300.05
-312.61
-272.42
-186.24
-77.02
26.82
108.02
164.59
203.75
235.71
263.4
281.1
279.51
254.67
209.35
152.44
95.6
47.85
13.42
-5.65
-14.34
-20.19
-27.58
-36.22
-46.65
-55.4
-62.14
-70.14
-83.85
-109.42
-151.47
-206.47
-263.08
-311.06
-342.65
-353.43
-342.22
-309.1
-258.84
-199.71
-140.52
-89.34
-51.3
-27.53
-14.1
-7.61
-4.2
-2.31
-0.98
2.34
10.56
