1539266940.000000
4.000000
0.000000
0.037127
0.064013
0.061452
0.064013
0.064013
0.062732
0.062732
0.060172
0.062732
0.056331
0.056331
0.061452
0.047369
0.052490
0.070414
0.079376
0.075535
0.067853
0.071694
0.060172
0.053771
0.056331
0.051210
0.052490
0.056331
0.055051
0.055051
0.049930
0.053771
0.055051
0.049930
0.055051
0.053771
0.058892
0.057611
0.053771
0.035847
0.055051
0.044809
0.044809
0.025605
0.033287
0.055051
0.060172
0.055051
0.053771
0.055051
0.053771
0.048650
0.052490
0.064013
0.076815
0.136987
0.087057
0.070414
0.056331
0.057611
0.053771
0.056331
0.053771
0.058892
0.049930
0.055051
0.055051
0.056331
0.056331
0.046089
0.053771
0.055051
0.047369
0.048650
0.052490
0.049930
0.049930
0.052490
0.052490
0.053771
0.048650
0.052490
0.051210
0.048650
0.046089
0.049930
0.047369
0.044809
0.040968
0.040968
0.037127
0.037127
0.043529
0.053771
0.047369
0.049930
0.049930
0.044809
0.049930
0.051210
0.049930
0.048650
0.048650
0.048650
0.048650
0.043529
0.048650
0.048650
0.047369
0.046089
0.049930
0.043529
0.044809
0.048650
0.051210
0.049930
0.044809
0.047369
0.047369
0.046089
0.053771
0.053771
0.046089
0.048650
0.048650
0.043529
0.051210
0.051210
0.051210
0.047369
0.048650
0.048650
0.051210
0.044809
0.048650
0.052490
0.048650
0.049930
0.049930
0.053771
0.053771
0.052490
0.052490
0.056331
0.055051
0.055051
0.057611
0.052490
0.053771
0.060172
0.058892
0.055051
0.061452
0.047369
0.048650
0.047369
0.058892
0.039688
0.039688
0.040968
0.038408
0.049930
0.044809
0.052490
0.056331
0.051210
0.043529
0.044809
0.042248
0.043529
0.042248
0.039688
0.035847
0.044809
0.040968
0.046089
0.047369
0.040968
0.051210
0.058892
0.052490
0.048650
0.044809
0.046089
0.056331
0.061452
0.064013
0.064013
0.066573
0.047369
0.044809
0.046089
0.046089
0.046089
0.044809
0.043529
0.037127
0.039688
0.038408
0.038408
0.039688
0.037127
0.032006
0.047369
0.040968
0.024325
0.055051
0.048650
0.025605
0.046089
0.046089
0.016643
0.051210
0.048650
0.019204
0.048650
0.043529
0.015363
0.042248
0.044809
0.016643
0.044809
0.040968
0.028166
0.042248
0.042248
0.032006
0.037127
0.051210
0.048650
0.035847
0.033287
0.023045
0.046089
0.044809
0.046089
0.048650
0.043529
0.049930
0.048650
0.049930
0.049930
0.038408
0.043529
0.053771
0.040968
0.035847
0.044809
0.048650
0.038408
0.056331
0.053771
0.034567
0.056331
0.034567
0.029446
0.034567
0.040968
0.066573
0.051210
0.042248
0.062732
0.049930
0.051210
0.052490
0.040968
0.051210
0.051210
0.047369
0.051210
0.048650
0.053771
0.055051
0.052490
0.055051
0.053771
0.055051
0.058892
0.053771
0.053771
0.057611
0.055051
0.058892
0.057611
0.057611
0.060172
0.055051
0.062732
0.061452
0.058892
0.060172
0.061452
0.057611
0.056331
0.057611
0.058892
0.058892
0.060172
0.053771
0.061452
0.058892
0.056331
0.061452
0.057611
0.055051
0.065293
0.058892
0.060172
0.061452
0.060172
0.066573
0.060172
0.060172
0.060172
0.056331
0.062732
0.058892
0.057611
0.065293
0.057611
0.056331
0.060172
0.056331
0.057611
0.055051
0.056331
0.061452
0.056331
0.056331
0.049930
0.055051
0.056331
0.060172
0.056331
0.048650
0.052490
0.056331
0.058892
0.056331
0.056331
0.052490
0.056331
0.055051
0.061452
0.061452
0.056331
0.040968
0.058892
0.055051
0.055051
0.060172
0.038408
0.056331
0.053771
0.053771
0.058892
0.053771
0.064013
0.055051
0.057611
0.053771
0.058892
0.055051
0.060172
0.057611
0.057611
0.062732
0.058892
0.064013
0.061452
0.069134
0.061452
0.067853
0.061452
0.065293
0.067853
0.066573
0.064013
0.065293
0.062732
0.056331
0.062732
0.060172
0.058892
0.062732
0.056331
0.061452
0.060172
0.056331
0.058892
0.057611
0.062732
0.029446
0.057611
0.057611
0.053771
0.053771
0.064013
0.058892
0.060172
0.057611
0.062732
0.058892
0.057611
0.060172
0.056331
0.056331
0.058892
0.060172
0.064013
0.061452
0.060172
0.067853
0.065293
0.066573
0.066573
0.067853
0.065293
0.065293
0.065293
0.064013
0.060172
0.061452
0.065293
0.060172
0.055051
0.060172
0.061452
0.062732
0.093458
0.083216
0.071694
0.088337
0.079376
0.070414
0.081936
0.070414
0.070414
0.071694
0.069134
0.067853
0.061452
0.057611
0.056331
0.055051
0.053771
0.055051
0.053771
0.055051
0.053771
0.053771
0.053771
0.055051
0.052490
0.053771
0.049930
0.048650
0.051210
0.064013
0.062732
0.060172
0.053771
0.049930
0.052490
0.049930
0.053771
0.057611
0.057611
0.056331
0.055051
0.057611
0.057611
0.056331
0.052490
0.057611
0.051210
0.053771
0.055051
0.057611
0.056331
0.053771
0.055051
0.055051
0.051210
0.049930
0.053771
0.052490
0.053771
0.053771
0.058892
0.061452
0.064013
0.061452
0.056331
0.056331
0.052490
0.067853
0.061452
0.092178
0.075535
0.065293
0.065293
0.067853
0.064013
0.065293
0.056331
0.055051
0.056331
0.056331
0.053771
0.055051
0.055051
0.055051
0.056331
0.053771
0.052490
0.052490
0.053771
0.052490
0.048650
0.049930
0.055051
0.061452
0.061452
0.058892
0.057611
0.053771
0.052490
0.051210
0.052490
0.048650
0.049930
0.048650
0.051210
0.049930
0.051210
0.049930
0.051210
0.051210
0.052490
0.052490
0.053771
0.055051
0.055051
0.055051
0.055051
0.055051
0.049930
0.060172
0.049930
0.044809
0.049930
0.053771
0.051210
0.048650
0.048650
0.049930
0.048650
0.049930
0.049930
0.051210
0.053771
0.061452
0.057611
0.048650
0.049930
0.049930
0.044809
0.046089
0.047369
0.047369
0.048650
0.056331
0.067853
0.065293
0.069134
0.057611
0.057611
0.051210
0.044809
0.044809
0.046089
0.049930
0.049930
0.052490
0.060172
0.058892
0.064013
0.057611
0.053771
0.049930
0.049930
0.048650
0.044809
0.043529
0.044809
0.044809
0.048650
0.055051
0.058892
0.066573
0.057611
0.053771
0.049930
0.048650
0.048650
0.046089
0.044809
0.046089
0.049930
0.047369
0.044809
0.044809
0.048650
0.057611
0.056331
0.112662
0.113942
0.092178
0.070414
0.060172
0.055051
0.057611
0.065293
0.069134
0.057611
0.061452
0.062732
0.064013
0.058892
0.052490
0.049930
0.046089
0.051210
0.053771
0.056331
0.058892
0.062732
0.056331
0.049930
0.053771
0.055051
0.055051
0.056331
0.049930
0.047369
0.046089
0.053771
0.058892
0.065293
0.065293
0.066573
0.060172
0.058892
0.056331
0.056331
0.049930
0.047369
0.047369
0.053771
0.061452
0.061452
0.056331
0.046089
0.057611
0.053771
0.055051
0.052490
0.046089
0.044809
0.051210
0.047369
0.048650
0.058892
0.065293
0.126745
0.108821
0.083216
0.067853
0.058892
0.055051
0.055051
0.053771
0.056331
0.055051
0.064013
0.057611
0.070414
0.098579
0.081936
0.064013
0.052490
0.044809
0.042248
0.049930
0.055051
0.060172
0.060172
0.047369
0.055051
0.055051
0.051210
0.053771
0.052490
0.049930
0.051210
0.043529
0.044809
0.047369
0.047369
0.051210
0.051210
0.047369
0.047369
0.047369
0.056331
0.055051
0.087057
0.079376
0.061452
0.051210
0.042248
0.037127
0.038408
0.037127
0.038408
0.040968
0.039688
0.038408
0.037127
0.037127
0.040968
0.039688
0.040968
0.040968
0.039688
0.039688
0.042248
0.044809
0.047369
0.046089
0.047369
0.055051
0.056331
0.117783
0.093458
0.075535
0.062732
0.055051
0.055051
0.049930
0.047369
0.044809
0.056331
0.001280
0.025605
0.062732
0.044809
0.042248
0.043529
0.042248
0.035847
0.033287
0.038408
0.042248
0.060172
0.060172
0.046089
0.038408
0.032006
0.032006
0.032006
0.033287
0.035847
0.033287
0.043529
0.051210
0.069134
0.061452
0.055051
0.056331
0.056331
0.052490
0.043529
0.043529
0.039688
0.043529
0.044809
0.051210
0.051210
0.057611
0.064013
0.056331
0.053771
0.052490
0.046089
0.040968
0.040968
0.042248
0.049930
0.039688
0.040968
0.049930
0.049930
0.057611
0.084497
0.102420
0.076815
0.056331
0.046089
0.034567
0.039688
0.047369
0.053771
0.061452
0.064013
0.058892
0.060172
0.056331
0.053771
0.046089
0.046089
0.046089
0.052490
0.055051
0.058892
0.058892
0.038408
0.053771
0.049930
0.053771
0.046089
0.043529
0.043529
0.040968
0.048650
0.046089
0.043529
0.044809
0.052490
0.053771
0.060172
0.107541
0.078095
0.067853
0.058892
0.049930
0.044809
0.056331
0.067853
0.056331
0.056331
0.057611
0.053771
0.044809
0.044809
0.043529
0.046089
0.047369
0.044809
0.043529
0.044809
0.047369
0.049930
0.049930
0.058892
0.058892
0.055051
0.042248
0.042248
0.046089
0.049930
0.052490
0.053771
0.057611
0.047369
0.049930
0.047369
0.042248
0.039688
0.032006
0.026885
0.035847
0.044809
0.066573
0.071694
0.052490
0.053771
0.052490
0.044809
0.039688
0.040968
0.039688
0.039688
0.044809
0.053771
0.056331
0.061452
0.064013
0.061452
0.062732
0.052490
0.047369
0.044809
0.042248
0.049930
0.052490
0.065293
0.064013
0.062732
0.060172
0.057611
0.053771
0.049930
0.046089
0.042248
0.043529
0.043529
0.039688
0.046089
0.053771
0.060172
0.094739
0.089618
0.074255
0.058892
0.048650
0.046089
0.044809
0.043529
0.049930
0.060172
0.058892
0.047369
0.055051
0.053771
0.047369
0.042248
0.040968
0.040968
0.042248
0.048650
0.053771
0.055051
0.055051
0.052490
0.053771
0.051210
0.040968
0.042248
0.039688
0.046089
0.047369
0.056331
0.055051
0.042248
0.058892
0.053771
0.051210
0.049930
0.042248
0.040968
0.040968
0.043529
0.039688
0.040968
0.043529
0.057611
0.053771
0.097299
0.080656
0.060172
0.043529
0.034567
0.029446
0.039688
0.049930
0.061452
0.065293
0.048650
0.060172
0.057611
0.053771
0.046089
0.040968
0.040968
0.047369
0.051210
0.060172
0.060172
0.052490
0.053771
0.051210
0.052490
0.049930
0.047369
0.042248
0.043529
0.047369
0.055051
0.057611
0.058892
0.057611
0.056331
0.053771
0.052490
0.044809
0.040968
0.044809
0.048650
0.052490
0.064013
0.061452
0.060172
0.053771
0.049930
0.048650
0.046089
0.044809
0.044809
0.040968
0.040968
0.042248
0.043529
0.042248
0.042248
0.046089
0.052490
0.056331
0.053771
0.056331
0.053771
0.052490
0.051210
0.048650
0.042248
0.038408
0.040968
0.049930
0.053771
0.053771
0.052490
0.053771
0.051210
0.049930
0.047369
0.043529
0.043529
0.042248
0.044809
0.049930
0.051210
0.049930
0.051210
0.044809
0.043529
0.040968
0.040968
0.040968
0.043529
0.039688
0.042248
0.039688
0.042248
0.042248
0.042248
0.040968
0.040968
0.040968
0.042248
0.046089
0.042248
0.047369
0.048650
0.053771
0.048650
0.046089
0.046089
0.047369
0.046089
0.043529
0.042248
0.042248
0.044809
0.049930
0.058892
0.062732
0.060172
0.060172
0.055051
0.049930
0.043529
0.044809
0.043529
0.049930
0.053771
0.053771
0.053771
0.049930
0.049930
0.051210
0.048650
0.047369
0.046089
0.046089
0.046089
0.042248
0.043529
0.046089
0.053771
0.047369
0.048650
0.048650
0.049930
0.049930
0.044809
0.047369
0.049930
0.053771
0.048650
0.048650
0.049930
0.043529
0.048650
0.051210
0.048650
0.048650
0.052490
0.047369
0.048650
0.046089
0.042248
0.043529
0.049930
0.051210
0.052490
0.049930
0.049930
0.052490
0.049930
0.051210
0.049930
0.048650
0.047369
0.043529
0.043529
0.040968
0.047369
0.043529
0.040968
0.047369
0.043529
0.039688
0.040968
0.039688
0.035847
0.039688
0.038408
0.035847
0.044809
0.040968
0.044809
0.040968
0.038408
0.051210
0.061452
0.110102
0.084497
0.066573
0.061452
0.044809
0.046089
0.037127
0.038408
0.038408
0.047369
0.062732
0.071694
0.072974
0.069134
0.062732
0.061452
0.057611
0.056331
0.048650
0.047369
0.046089
0.044809
0.046089
0.052490
0.056331
0.075535
0.094739
0.080656
0.062732
0.065293
0.060172
0.056331
0.047369
0.049930
0.053771
0.049930
0.049930
0.060172
0.055051
0.058892
0.075535
0.067853
0.061452
0.057611
0.056331
0.046089
0.046089
0.046089
0.048650
0.053771
0.060172
0.062732
0.080656
0.070414
0.061452
0.057611
0.055051
0.051210
0.047369
0.044809
0.043529
0.051210
0.052490
0.056331
0.055051
0.066573
0.055051
0.070414
0.061452
0.055051
0.052490
0.048650
0.048650
0.048650
0.049930
0.049930
0.047369
0.042248
0.042248
0.048650
0.051210
0.060172
0.057611
0.081936
0.066573
0.065293
0.067853
0.056331
0.046089
0.048650
0.044809
0.051210
0.035847
0.046089
0.044809
0.056331
0.057611
0.075535
0.085777
0.060172
0.053771
0.038408
0.035847
0.044809
0.048650
0.062732
0.084497
0.078095
0.074255
0.066573
0.064013
0.057611
0.052490
0.052490
0.047369
0.049930
0.051210
0.055051
0.069134
0.104981
0.098579
0.081936
0.074255
0.067853
0.062732
0.058892
0.053771
0.056331
0.052490
0.055051
0.052490
0.052490
0.062732
0.083216
0.117783
0.103700
0.080656
0.080656
0.064013
0.064013
0.060172
0.058892
0.055051
0.048650
0.048650
0.048650
0.044809
0.048650
0.058892
0.058892
0.076815
0.060172
0.064013
0.065293
0.053771
0.034567
0.030726
0.032006
0.035847
0.040968
0.033287
0.035847
0.047369
0.057611
0.071694
0.124184
0.099860
0.085777
0.071694
0.061452
0.056331
0.052490
0.055051
0.052490
0.047369
0.046089
0.064013
0.069134
0.090898
0.098579
0.087057
0.064013
0.057611
0.047369
0.040968
0.048650
0.032006
0.032006
0.040968
0.037127
0.053771
0.087057
0.128025
0.112662
0.085777
0.065293
0.060172
0.048650
0.048650
0.043529
0.046089
0.056331
0.072974
0.106261
0.075535
0.076815
0.072974
0.074255
0.061452
0.047369
0.044809
0.044809
0.040968
0.046089
0.051210
0.052490
0.070414
0.116503
0.088337
0.079376
0.064013
0.056331
0.058892
0.057611
0.051210
0.051210
0.052490
0.055051
0.047369
0.044809
0.046089
0.051210
0.044809
0.047369
0.061452
0.066573
0.062732
0.062732
0.062732
0.061452
0.065293
0.051210
0.053771
0.056331
0.055051
0.057611
0.053771
0.051210
0.052490
0.049930
0.053771
0.058892
0.055051
0.053771
0.058892
0.056331
0.056331
0.057611
0.061452
0.061452
0.060172
0.066573
0.066573
0.069134
0.071694
0.074255
0.076815
0.074255
0.071694
0.072974
0.075535
0.071694
0.070414
0.072974
0.071694
0.074255
0.071694
0.069134
0.070414
0.069134
0.069134
0.067853
0.069134
0.067853
0.069134
0.067853
0.069134
0.066573
0.067853
0.067853
0.067853
0.057611
0.048650
0.052490
0.048650
0.051210
0.052490
0.081936
0.106261
0.098579
0.083216
0.067853
0.069134
0.049930
0.052490
0.056331
0.055051
0.052490
0.064013
0.088337
0.107541
0.088337
0.084497
0.083216
0.080656
0.079376
0.069134
0.065293
0.058892
0.060172
0.057611
0.067853
0.078095
0.072974
0.096019
0.090898
0.090898
0.079376
0.076815
0.076815
0.064013
0.057611
0.055051
0.055051
0.053771
0.062732
0.058892
0.083216
0.066573
0.060172
0.058892
0.070414
0.062732
0.055051
0.061452
0.081936
0.071694
0.076815
0.074255
0.053771
0.071694
0.116503
0.093458
0.084497
0.076815
0.062732
0.071694
0.060172
0.061452
0.069134
0.072974
0.076815
0.094739
0.078095
0.079376
0.079376
0.083216
0.072974
0.071694
0.071694
0.067853
0.070414
0.069134
0.069134
0.079376
0.101140
0.125465
0.112662
0.113942
0.107541
0.101140
0.102420
0.106261
0.099860
0.094739
0.110102
0.093458
0.090898
0.116503
0.115223
0.156191
0.143388
0.113942
0.104981
0.099860
0.088337
0.072974
0.065293
0.078095
0.075535
0.081936
0.079376
0.074255
0.064013
0.096019
0.142108
0.142108
0.154910
0.129305
0.108821
0.090898
0.092178
0.093458
0.113942
0.093458
0.103700
0.121624
0.152350
0.138267
0.125465
0.129305
0.140828
0.142108
0.145949
0.136987
0.136987
0.149789
0.142108
0.133146
0.134426
0.134426
0.138267
0.131866
0.115223
0.101140
0.116503
0.112662
0.106261
0.106261
0.092178
0.085777
0.090898
0.085777
0.088337
0.111382
0.119063
0.142108
0.119063
0.107541
0.106261
0.110102
0.096019
0.090898
0.087057
0.090898
0.097299
0.116503
0.144668
0.126745
0.111382
0.101140
0.098579
0.093458
0.083216
0.081936
0.084497
0.085777
0.101140
0.104981
0.134426
0.113942
0.107541
0.107541
0.107541
0.104981
0.097299
0.088337
0.090898
0.098579
0.101140
0.112662
0.112662
0.103700
0.101140
0.090898
0.070414
0.064013
0.076815
0.075535
0.088337
0.088337
0.106261
0.103700
0.135707
0.121624
0.116503
0.112662
0.104981
0.108821
0.115223
0.115223
0.108821
0.102420
0.113942
0.117783
0.117783
0.121624
0.128025
0.135707
0.153630
0.147229
0.176675
0.165152
0.144668
0.140828
0.143388
0.134426
0.134426
0.124184
0.124184
0.126745
0.138267
0.139547
0.133146
0.128025
0.119063
0.121624
0.121624
0.116503
0.111382
0.112662
0.113942
0.121624
0.117783
0.119063
0.128025
0.099860
0.111382
0.130586
0.129305
0.139547
0.151070
0.142108
0.139547
0.152350
0.148509
0.152350
0.156191
0.145949
0.133146
0.130586
0.120344
0.128025
0.117783
0.125465
0.131866
0.134426
0.128025
0.134426
0.148509
0.130586
0.136987
0.136987
0.188197
0.180515
0.165152
0.160031
0.166433
0.170273
0.184356
0.202280
0.208681
0.218923
0.207401
0.194598
0.167713
0.202280
0.212522
0.243248
0.241968
0.218923
0.225324
0.227885
0.240687
0.252210
0.266292
0.215082
0.254770
0.262452
0.270133
0.308541
0.321343
0.323904
0.335426
0.344388
0.288057
0.281655
0.335426
0.322623
0.273974
0.270133
0.304700
0.309821
0.331585
0.334146
0.348228
0.373834
0.369993
0.372553
0.373834
0.405840
0.408400
0.434005
0.483935
0.532585
0.568432
0.606839
0.620922
0.619642
0.590196
0.431445
0.509540
0.531304
0.577394
0.577394
0.599158
0.640126
0.687495
0.607106
0.594303
0.610947
0.486762
0.417629
0.425310
0.488043
0.509807
0.534132
0.550775
0.576380
0.613507
0.614788
0.631431
0.636552
0.539253
0.498285
0.512367
0.525170
0.572539
0.587902
0.578941
0.577660
0.557176
0.626310
0.626310
0.681361
0.701845
0.715927
0.738972
0.777380
0.795303
0.814507
0.838832
0.840112
0.849074
0.865717
0.886201
0.902844
0.929729
0.866997
0.841392
0.810666
0.851634
0.886201
0.928449
0.937411
0.943812
0.904124
0.891322
0.904124
0.887481
0.887481
0.887481
0.900284
0.892602
0.882360
0.864437
0.902844
0.950213
1.001424
1.020627
1.020627
1.032150
0.981009
0.972047
0.997652
0.995091
0.950283
0.975888
0.991251
1.006614
0.888830
1.014295
1.018136
0.942601
0.881149
0.854264
0.772328
0.680149
0.713436
0.827378
0.890111
1.011735
1.071906
1.117996
1.103913
0.998932
0.900353
0.833780
0.800493
0.906754
1.005333
1.047582
1.077027
1.135919
1.128238
1.141040
1.202492
1.222976
1.243460
1.105193
1.013015
1.135919
1.133359
1.206333
1.194811
1.187129
1.203772
1.219135
1.270346
1.289549
1.299791
1.338199
1.381727
1.359963
1.372766
1.411173
1.432938
1.434218
1.368925
1.315154
1.261384
1.119276
0.954123
0.957964
1.065505
1.132078
1.165365
1.111594
1.125677
1.096231
1.079588
1.079588
1.160244
1.173046
1.254982
1.275467
1.340759
1.297231
1.260103
1.257543
1.351001
1.342040
1.357403
1.345880
1.385568
1.295951
1.263944
1.352282
1.359963
1.381727
1.388129
1.395810
1.423976
1.425256
1.461103
1.453421
1.527676
1.522654
1.541858
1.563622
1.493208
1.504731
1.415113
1.447119
1.488087
1.498329
1.447119
1.248680
1.200031
1.224355
1.188508
1.284527
1.357502
1.429196
1.491928
1.499610
1.504731
1.393349
1.392068
1.486807
1.474005
1.157782
1.045120
0.897891
1.057824
1.165365
1.307473
1.345880
1.421415
1.406052
1.475186
1.340858
1.225636
1.068165
1.208992
1.305011
1.329336
1.372865
1.429196
1.468884
1.489368
1.497049
1.426635
1.243559
1.013114
1.065604
1.214113
1.331897
1.354941
1.490648
1.522654
1.539297
1.522654
1.491928
1.413833
1.303731
1.065604
1.192349
1.226916
1.307572
1.375425
1.421514
1.459922
1.454801
1.445839
1.456081
1.468884
1.516253
1.561062
1.602030
1.616112
1.650679
1.694208
1.648119
1.655800
1.502170
1.471444
1.219234
1.239718
1.197470
1.258922
1.319094
1.394629
1.441998
1.477845
1.498329
1.482966
1.439438
1.102732
1.051521
1.246120
1.376705
1.424075
1.444559
1.480406
1.507291
1.518813
1.502170
1.399750
1.228196
0.988789
1.087368
1.125776
1.206432
1.270445
1.338298
1.348540
1.429196
1.504731
1.509852
1.555941
1.489368
1.307572
1.175706
1.248680
1.293489
1.393349
1.390788
1.490648
1.525215
1.550820
1.540578
1.580266
1.605870
1.671163
1.739017
1.739017
1.687807
1.690367
1.312693
1.057923
0.963184
1.118095
1.246120
1.361342
1.459922
1.550820
1.610991
1.651960
1.539297
1.160343
1.255082
1.404871
1.511132
1.514973
1.441998
1.462482
1.518813
1.543138
1.578985
1.502170
1.349820
1.234597
1.444559
1.607151
1.663482
1.680125
1.694208
1.699329
1.677565
1.673724
1.704450
1.733896
1.703170
1.504731
1.454801
1.631476
1.655800
1.680125
1.673724
1.708291
1.690367
1.662202
1.598189
1.663482
1.754380
1.824794
1.739017
1.676284
1.747978
1.785106
1.739017
1.755660
1.692928
1.724934
1.658361
1.637877
1.658361
1.795348
1.788947
1.811991
1.818392
1.791507
1.763341
1.707010
1.572584
1.293489
1.370304
1.380546
1.500890
1.559781
1.635316
1.683966
1.712131
1.724934
1.651960
1.375425
1.161623
1.247400
1.303731
1.389508
1.404871
1.463763
1.499610
1.549539
1.558501
1.508571
1.457361
1.247400
1.287088
1.411272
1.507291
1.607151
1.691647
1.746698
1.760781
1.713412
1.753099
1.747978
1.754380
1.783826
1.864481
1.905449
1.929774
1.908010
1.931054
1.913131
1.879844
1.732615
1.573864
1.329336
1.298610
1.362623
1.389508
1.457361
1.530336
1.608431
1.676284
1.717252
1.672444
1.591788
1.409992
1.196190
1.261483
1.257642
1.374145
1.408712
1.436877
1.454801
1.489368
1.509852
1.512412
1.577705
1.672444
1.758220
1.662202
1.721093
1.503450
1.523934
1.577705
1.550820
1.602030
1.669883
1.705730
1.695488
1.695488
1.715972
1.753099
1.805590
1.811991
1.791507
1.504731
1.526495
1.179547
1.261483
1.307572
1.379266
1.433036
1.454801
1.509852
1.603310
1.642998
1.650679
1.721093
1.768463
1.815832
1.874723
1.908010
1.914411
1.855520
1.831195
1.876004
1.883685
1.884965
1.881125
1.849118
1.877284
1.904169
1.943857
1.982265
1.986304
1.986304
1.982464
1.913330
1.858279
1.909489
1.970941
2.027272
2.011909
1.964540
1.928693
1.938935
1.950457
1.931254
1.946617
1.964540
1.987585
2.014470
1.990145
1.969661
2.020871
2.061839
2.141215
2.168100
2.173221
2.196266
2.161699
2.148896
2.202667
2.220591
2.223151
2.177062
2.129693
2.143775
2.174501
2.088725
1.878763
1.833954
1.693127
1.717452
1.758420
1.891566
1.935094
1.976062
2.009349
1.919731
2.005508
2.086164
2.045196
1.965820
1.937655
1.794267
1.862120
1.849318
1.841636
1.887725
1.938935
1.878763
1.878763
1.896687
1.918451
1.923572
1.931254
1.922292
1.944056
1.942776
1.938935
1.928693
1.922292
1.918451
1.931254
1.954298
1.921012
1.986304
2.104088
2.214189
2.274361
2.316609
2.289724
2.104088
1.734095
1.807069
1.352580
1.408712
1.570023
1.591788
1.625074
1.654520
1.654520
1.672444
1.689087
1.474005
1.228196
1.191069
1.407431
1.543138
1.607151
1.673724
1.708291
1.659641
1.809431
1.578985
1.491928
1.376705
1.540578
1.559781
1.608431
1.625074
1.668603
1.707010
1.747978
1.783826
1.851679
1.869602
1.847838
1.932335
1.987386
2.023432
2.032393
2.061839
2.013190
1.890286
1.851878
1.583025
1.663681
1.740496
1.830114
1.846757
1.851878
1.877483
1.931254
1.974782
1.924852
1.731534
1.481885
1.563821
1.677764
1.732815
1.790426
1.827553
1.859560
1.895407
1.922292
1.899247
1.878763
1.743057
1.526694
1.421713
1.669883
1.792787
1.809431
1.847838
1.850399
1.869602
1.823513
1.868322
1.852959
1.655800
1.614832
1.161623
1.180827
1.343419
1.418954
1.425355
1.485527
1.604590
1.657081
1.783826
1.865762
1.890086
1.887526
1.769743
1.566183
1.274285
1.349820
1.596909
1.660921
1.722373
1.817112
1.843997
1.915691
1.942577
1.905449
1.832475
1.758220
1.864481
1.963061
1.963260
1.746897
1.821152
1.871082
1.941496
2.000387
2.027272
2.020871
2.151457
2.230833
2.248756
2.184743
2.095126
1.933814
1.918451
2.020871
2.020871
2.017030
2.038795
1.986304
1.919731
1.926133
1.960699
2.090005
2.098967
2.082323
2.122011
2.024712
2.060559
2.120731
2.105368
2.119451
2.054158
2.029833
2.051597
2.063120
2.104088
2.178342
2.184743
2.298686
2.343495
2.365259
2.351176
2.335813
2.340934
2.329412
2.340934
2.361418
2.374221
2.411348
2.403666
2.371660
2.214189
2.063120
1.795547
1.775063
1.945336
2.004228
2.020871
1.995266
1.991426
2.000387
2.042635
2.061839
2.073362
1.946617
1.863400
2.050317
2.141215
2.182183
2.201387
2.201387
2.223151
2.229552
2.326851
2.363979
2.294845
1.900528
1.785305
1.941496
2.084884
2.137374
2.180903
2.180903
2.203947
2.212909
2.264119
2.319170
2.347336
2.365259
2.424150
2.471520
2.508939
2.567831
2.599837
2.624162
2.645926
2.661289
2.571671
2.531984
2.494856
2.234965
2.146628
2.103099
2.296417
2.366831
2.355309
2.429564
2.452608
2.432124
2.492296
2.438525
2.067252
1.904660
2.054158
2.219310
2.385743
2.416469
2.413908
2.413908
2.412628
2.339654
2.317890
2.305087
2.293565
2.239794
1.953018
1.787865
1.951738
2.015750
2.017030
2.017030
2.033674
2.043916
2.043916
2.114330
2.123291
1.777623
1.871082
2.043916
2.010629
2.024712
1.983744
1.928693
2.084884
2.205228
2.270520
2.235954
2.223151
2.323011
2.311488
2.090005
1.999107
1.670082
1.868521
1.915891
2.034954
2.059279
2.123291
2.143775
2.175782
2.171941
2.210349
2.205228
2.125852
2.104088
1.784025
1.821152
1.897967
2.066960
2.161699
2.215470
2.233393
2.225712
2.287164
2.329412
2.296125
2.230833
1.739216
1.663681
1.539497
1.988865
2.073362
2.118170
2.171941
2.151457
2.169380
2.127132
2.194985
2.106648
2.027272
1.864681
1.844196
1.873642
2.027272
2.065680
2.092565
2.068241
2.178342
2.191145
2.180903
2.111769
2.011909
1.668802
1.896687
2.082323
2.166820
2.192425
2.243635
2.266680
2.289724
2.267960
2.273081
2.289724
2.388304
2.330692
2.306367
2.462558
2.511500
2.580633
2.478213
2.534544
2.365551
2.087736
1.830406
2.045196
2.079763
2.177062
2.212909
2.298686
2.340934
2.365259
2.234673
2.267960
2.296125
2.216750
1.942776
1.435796
1.573864
1.819673
1.989946
2.147616
2.237234
2.330692
2.274361
2.278202
2.311488
2.369100
2.486883
2.455168
2.388595
2.287456
2.298978
2.351468
2.382194
2.337385
2.342506
2.319462
2.183755
2.089016
2.062131
2.273373
2.446207
2.459009
2.487175
2.497417
2.487175
2.456449
2.462850
2.462850
2.584474
2.622881
2.529423
2.555028
2.526863
2.453888
2.459009
2.519181
2.516621
2.461570
2.574232
2.642085
2.660009
2.727862
2.784193
2.693295
2.521742
2.489735
2.369392
2.097978
2.114621
2.137666
2.218322
2.269532
2.342506
2.348907
2.441086
2.433404
2.365551
1.941787
1.801948
1.908209
2.043916
2.083604
2.166820
2.252597
2.346055
2.427991
2.475361
2.416761
2.578073
2.615200
2.476933
1.977635
2.045488
2.314341
2.350188
2.319462
2.316901
2.341226
2.393716
2.377073
2.388595
2.368111
2.158150
2.131265
1.944348
1.339777
1.602030
1.709571
1.869602
1.945137
2.107729
2.274361
2.383183
2.324291
2.493284
2.330984
1.977635
1.848329
2.203947
2.287164
2.353737
2.370380
2.422870
2.515049
2.592155
2.644646
2.697136
2.805958
2.610079
2.270812
2.375793
1.829125
1.950457
2.169380
2.209068
2.324291
2.456157
2.419322
2.535824
2.675372
2.425723
2.058290
2.378353
2.514060
2.576792
2.551187
2.727862
2.814919
2.840524
2.862288
2.871250
2.933983
2.996715
3.011386
3.012666
3.001144
3.035711
3.093322
3.176539
3.217507
3.264876
3.211105
3.024189
2.984501
2.850074
2.498005
2.713087
2.829590
2.832151
2.930730
2.985781
3.076679
3.120208
3.194462
3.108685
2.731011
2.562018
2.483922
2.743814
2.923049
2.969138
2.952495
2.970418
2.960176
3.029310
3.111246
3.143252
2.828310
2.617069
2.325171
2.720181
2.798276
2.868690
2.867409
3.023600
3.088201
3.157335
3.036991
2.960176
2.510808
2.619629
2.827030
2.883361
3.063876
3.095883
3.077959
3.140692
3.136851
3.163736
3.230309
3.157335
3.380099
3.520926
3.229920
3.109576
2.817679
2.884641
2.965297
3.061316
3.102284
3.208545
3.229029
3.282799
3.263596
3.314806
3.348092
3.427468
3.500442
3.574308
3.608874
3.556384
3.637040
3.494932
3.485970
3.526938
3.576868
3.607594
3.601193
3.578148
3.647282
3.621677
3.608874
3.702333
3.725377
3.683129
3.583269
3.648562
3.648562
3.681849
3.794511
3.777868
3.749702
3.761224
3.794511
3.794511
3.795791
3.818836
3.831638
3.840600
3.830358
3.823957
3.806033
3.808594
3.823957
3.857243
3.899492
3.927657
3.935338
3.916135
3.903332
3.899492
3.918695
3.937899
3.959663
3.981959
3.999882
4.007564
3.891061
3.801443
3.953793
4.029328
4.056213
4.066455
4.016526
3.898742
3.573559
3.645252
3.632450
3.783520
3.869297
3.903863
3.946112
4.103583
4.175277
4.294340
4.316104
3.875698
3.366158
3.282410
3.706173
3.738180
3.675447
3.887969
3.849562
3.744581
3.772747
3.788110
3.788110
3.940459
4.092810
4.072857
4.328907
4.359633
4.191920
4.034449
3.551794
3.528750
3.836010
3.876978
3.892341
3.906424
4.056213
4.191920
3.796322
4.112545
3.930749
3.896182
3.661896
3.314948
3.387391
3.602473
3.886689
3.960944
4.204722
3.911545
4.336588
4.309703
4.057494
3.448094
3.564065
3.844441
3.841880
3.713855
3.983988
4.035729
4.042130
4.170156
4.156073
4.426206
4.286659
3.771997
3.355916
3.703613
3.848281
3.850842
3.847001
3.925097
3.962224
4.088220
4.066455
4.030608
4.030608
4.166315
4.191920
4.487659
4.282210
4.123459
3.973669
4.077370
3.962147
3.813638
3.314948
3.427079
3.693371
3.756103
3.972466
4.057494
4.373716
4.552951
4.370547
4.053045
3.893013
3.784800
3.998602
3.976838
3.981959
4.008844
4.060054
4.185519
4.275136
4.182958
4.115105
4.203443
4.278977
4.309703
4.310984
4.423645
4.421085
4.400601
4.435168
4.394200
4.481257
4.613795
4.539541
4.594592
4.589470
4.682929
4.602273
4.613795
4.707254
4.461445
4.452484
4.551063
4.691891
4.680368
4.757184
4.641961
4.761024
4.964584
4.875871
4.948845
5.034622
4.979571
4.911718
4.900196
4.923240
4.919399
4.833622
4.840024
4.813138
4.732482
4.655668
4.787533
4.787533
4.722240
4.769610
4.905317
4.879712
4.728642
4.960368
4.978291
4.841304
5.019259
4.962928
4.669750
4.650547
4.806737
4.672311
4.959087
5.070469
5.088393
4.929641
4.458509
4.312560
4.173388
4.280930
4.362866
4.355185
4.464006
4.594592
4.694451
5.096450
5.110157
4.372732
3.953185
4.049812
4.335309
4.273856
4.400601
4.413404
4.570875
4.874967
5.042680
4.752967
4.313840
3.954466
4.468454
4.516496
4.453764
4.506254
4.551063
4.638120
4.714935
4.950501
5.094794
4.749126
4.315121
3.997994
4.197713
4.433280
4.351344
4.352624
4.397433
4.560025
4.695732
4.944100
4.943724
4.549407
4.381694
3.982631
4.379509
4.485770
4.476809
4.355185
4.391032
4.526738
4.673967
4.809674
4.503694
4.133701
3.941663
4.510703
4.632999
4.640681
4.688050
4.791750
4.876247
4.813515
4.871126
4.946661
4.880992
5.396934
5.204895
4.322802
4.015918
4.469127
4.589470
4.740540
4.762304
4.871126
5.058043
4.861788
4.878431
5.139603
4.720961
4.942444
5.206176
5.373889
5.189533
5.041023
5.097354
5.065348
4.672311
4.438025
4.672687
4.887769
4.618917
4.580509
4.626598
4.712375
4.647082
4.736700
4.873686
4.951782
4.806737
5.163928
5.171609
5.172889
5.174170
4.975730
4.861788
4.381694
3.894294
4.423645
4.501741
4.447362
4.362866
4.488331
4.626598
4.745661
5.043960
5.387971
5.390532
4.896355
4.448267
3.968548
4.378229
4.658604
4.638120
4.494732
4.585630
4.653483
4.955623
5.052546
5.140883
5.000055
4.964208
5.007737
5.026941
5.056386
5.192093
5.119119
4.975730
5.183131
5.282991
5.472468
5.695784
5.571599
5.165760
4.811130
4.350967
4.376949
4.762304
4.727738
4.825037
5.038839
5.226660
5.120399
5.555685
5.377001
4.812410
4.408579
4.800712
4.919775
4.936419
4.880088
4.931298
4.924897
4.937699
4.803273
4.571547
5.106692
5.034622
4.978291
4.560929
4.334324
4.597152
4.763585
4.676528
4.464006
4.557464
4.722617
4.977387
5.321399
5.591532
5.050537
4.812410
4.313840
4.650923
4.373108
4.554904
4.635560
4.794311
4.691891
4.818635
4.990190
5.024380
5.122960
5.043584
5.099915
5.248424
5.440462
5.553124
5.593364
5.690663
5.588243
5.447415
5.606166
5.633051
5.642013
5.763637
5.839172
5.808446
5.776440
5.594644
5.370600
5.446135
5.584402
5.666338
5.675300
5.707306
5.789242
5.702185
5.665058
5.629211
5.686822
5.889102
5.891663
5.896783
5.652255
5.757236
5.828930
5.831491
5.822529
5.755956
5.855815
5.890382
5.821249
5.658657
5.675300
5.950554
5.856671
5.444430
5.549835
5.718828
5.681701
5.731631
5.862216
5.750834
5.983840
6.149849
6.135766
5.503322
5.315125
5.365479
5.695784
5.461498
5.275861
5.542154
4.955798
4.418821
4.812234
5.017075
5.448143
5.763637
5.899344
5.953115
6.254829
5.971894
5.800340
5.727365
5.311284
5.939032
5.512708
5.193925
5.457657
5.636892
5.794363
5.759797
5.746994
5.885261
6.052974
6.099919
6.114002
5.699200
5.674875
5.756812
5.311284
4.813690
4.777291
5.172889
5.395653
5.430220
5.450704
5.325791
5.868618
5.741873
5.028773
5.151677
5.286103
5.522950
5.481982
5.365479
5.519109
5.631771
5.274581
5.105588
4.812410
5.281711
4.641585
4.318961
4.625318
4.812234
5.038839
5.361086
5.423819
5.519837
5.866057
6.099063
6.038467
5.311284
4.877703
5.266348
5.331641
5.189533
5.413577
5.522398
5.802045
5.837892
5.803325
5.817408
5.804605
5.898064
5.863497
5.791803
5.914707
6.059375
6.286836
5.855391
5.311284
5.506307
5.689383
4.998046
4.812410
4.767049
5.359806
5.518557
5.608727
5.210568
5.554956
4.937875
4.996214
5.382851
4.371452
4.275809
4.987629
5.521118
5.794363
5.947993
5.726085
5.906601
5.641589
5.916843
5.783697
5.386818
4.975002
5.288664
5.497345
5.535752
5.542154
5.652255
5.656096
5.790523
6.074739
5.904040
5.311284
5.280982
5.410288
5.671459
5.598485
5.588243
5.773879
5.907025
6.095222
5.898920
5.500761
5.815703
5.736327
5.697920
5.960371
6.354689
6.476313
6.524406
6.191541
5.955974
6.163375
6.425827
6.140331
6.113445
6.393820
6.602501
6.576897
6.080159
6.415585
6.392540
6.274757
6.250432
6.331088
6.336209
6.333649
6.098082
6.276037
6.325967
6.318285
6.296521
6.282439
6.343891
6.459113
6.421986
6.775335
6.770215
6.791979
6.736928
5.881720
5.920684
6.390536
5.810582
6.025664
6.058951
6.147288
5.422666
4.854659
4.979571
5.472468
5.538313
5.794363
5.985121
6.089677
5.968053
5.607022
5.923244
5.404742
4.827773
5.010297
5.580009
5.773879
5.954395
6.245868
6.331645
6.601778
6.722845
6.804781
6.826546
6.516725
5.964936
6.274757
6.150573
5.811306
5.509723
5.822104
6.070473
6.162651
6.390536
6.560810
6.751011
6.743329
6.706202
6.264515
6.276037
6.377177
6.241470
5.847153
5.368895
5.616408
5.965917
6.130645
6.253549
6.289396
6.380294
6.462230
6.334929
6.323407
6.249152
5.857395
6.103760
6.290677
6.011581
6.153689
6.528803
6.567935
6.544890
6.716444
6.774055
6.806062
6.871355
6.954571
6.943743
7.000074
7.110176
7.201074
7.181870
7.009036
6.768349
6.906616
6.921979
6.683852
7.242042
7.090972
7.114017
6.886132
6.336904
6.341330
6.698520
6.028949
6.373336
6.393820
6.534648
6.244031
6.103203
6.311884
5.815146
5.417545
5.611287
5.930070
6.003044
6.303479
6.347007
6.275313
6.396937
6.599217
5.908605
5.782416
6.099919
6.153689
6.175454
6.361090
6.464791
6.368216
6.492400
6.637068
6.749731
6.853431
6.496241
6.178738
5.856115
5.452111
5.680421
5.674019
5.652255
5.638173
5.645854
5.680421
5.885261
6.090101
6.163931
5.854111
5.390659
5.169600
5.490943
5.531912
5.563918
5.707306
5.814847
5.880140
6.056815
6.235626
6.170333
6.259950
6.285555
5.898920
5.350972
5.348835
5.554956
5.680421
5.470459
5.690663
5.700905
5.659937
5.693223
5.601045
5.714988
5.803325
5.722669
5.762357
5.740592
5.675300
5.703465
5.755956
5.461498
5.617689
5.940312
5.864777
5.717548
5.400046
5.717548
5.430772
4.882824
4.901476
5.233061
5.477589
5.775159
5.789242
5.671459
5.567759
4.809850
5.288112
5.605614
5.694504
5.574160
6.015847
6.186976
5.951410
5.997499
6.331645
6.362370
6.417421
6.315001
6.354689
6.345727
6.322683
6.521122
6.701081
6.496241
6.445031
6.438629
6.055834
6.100643
6.751011
6.853431
6.078878
6.460393
6.820144
6.187700
5.955974
6.443750
6.084000
5.810026
5.310003
5.625370
5.962076
6.207460
6.358530
6.229224
6.364931
6.509600
6.890558
6.265795
5.843312
6.039747
6.475033
6.489840
6.441190
6.525686
6.626826
6.204343
6.829106
6.946889
6.377872
5.899643
6.122963
6.471192
6.614024
6.520566
6.429667
6.585858
6.606342
6.817584
7.060832
7.203634
6.933501
6.370190
5.950853
5.810582
6.345727
6.236906
6.460950
6.713883
6.575616
6.491119
6.706202
6.558973
6.159534
6.274757
6.471916
6.955851
7.172908
7.203634
7.189551
7.074329
7.051284
7.016717
7.073049
7.170348
7.231800
7.154984
6.989832
7.146023
7.010316
7.490411
7.865390
7.312322
7.234226
7.359691
7.053710
6.815584
6.422681
6.896959
5.952134
5.386818
5.067180
6.104184
6.600497
7.044188
7.297092
7.235641
7.274048
7.587710
7.643907
7.309761
6.861673
6.936062
7.089692
7.055125
6.819559
6.897654
7.053845
7.032081
7.112736
7.011597
7.075609
7.075609
7.017998
6.893813
6.686412
7.450723
7.640066
7.270073
7.194538
7.399379
7.450589
7.709199
6.969214
7.151010
7.057551
7.400659
6.810462
6.307458
5.808745
6.385415
6.603058
7.095398
7.412315
7.279169
7.487850
7.983173
7.508486
7.304926
7.355850
7.573493
7.386576
7.149729
7.053710
7.143328
7.317442
7.526124
7.318723
7.862830
7.873072
7.042188
6.806622
6.422681
6.629387
6.596100
6.596100
6.692119
6.789418
6.982736
7.267647
6.875890
6.564789
6.842603
6.391954
5.825388
5.326647
6.104184
6.603058
6.973774
7.035921
7.138341
7.161386
7.393112
7.477608
7.640066
7.738645
7.887155
7.873072
7.893556
7.811620
7.887155
7.874352
7.350729
6.810462
7.174189
6.997514
7.106335
7.038482
6.828520
6.342025
5.966217
6.710042
7.056991
7.331659
7.380309
7.405914
7.163947
6.893813
6.991112
6.452127
6.514164
6.406623
6.162095
6.679317
7.005781
7.303494
7.414876
7.361105
7.339341
7.582589
7.697677
6.807902
6.891253
7.367507
7.434080
7.441761
7.542767
7.592697
7.459550
7.716881
7.952447
7.923287
7.892561
7.888721
7.996262
7.993701
8.133248
8.308643
8.347051
8.284319
8.403382
8.243350
8.297121
8.284319
8.235669
8.521165
7.955091
7.804021
7.600664
7.891281
7.805504
7.700524
7.650594
7.890001
7.923287
8.044911
8.096122
8.134529
8.224147
8.307363
8.435389
8.587535
7.978136
7.985817
8.404459
8.512000
8.509440
8.536325
8.415981
8.542727
8.595217
8.523522
8.704039
8.623383
8.605459
8.745007
8.714280
8.752687
8.911439
8.999777
9.070879
9.076000
9.028630
9.027350
9.040153
8.895484
8.885242
8.973579
8.853236
8.878841
8.813548
8.931332
9.004306
9.037592
9.119529
9.170738
9.206586
9.175859
9.101604
9.017108
9.114408
9.145133
9.133612
9.032472
9.019669
9.026070
9.000465
9.006866
8.973579
9.005586
8.704727
8.999185
8.967178
9.060637
8.689363
8.959496
9.070879
8.982541
9.196343
9.143853
9.330770
9.266757
9.138732
9.187382
9.205305
9.060637
9.100325
8.931332
8.977421
9.204025
9.287241
9.035032
9.120809
9.228350
9.337172
9.210426
9.046555
9.348694
9.041433
9.065758
9.090083
9.435751
9.664031
9.568012
9.639707
9.240268
9.244109
9.303000
9.122485
9.245389
8.994460
9.664031
9.703719
9.640986
9.670433
9.615382
9.588496
9.468153
8.927887
8.763618
8.799465
8.933892
9.076000
9.156655
9.260356
9.305165
9.352534
9.389662
9.426789
9.462636
9.681955
9.799738
10.083954
10.102332
10.117696
9.836040
9.838601
9.475009
8.830587
8.423072
8.415981
8.340446
8.922961
9.049706
9.221949
8.752096
8.304008
8.686114
8.606739
9.030502
9.285961
9.312846
9.582979
10.004579
9.380271
9.036708
8.912523
8.892924
8.433313
7.857792
8.083319
8.279198
8.018026
8.557013
9.053547
8.968459
9.421668
8.353938
9.040745
8.423072
8.551688
8.986974
9.408865
9.168178
9.310286
9.332050
8.787943
8.302728
8.896076
9.008739
9.506165
8.872836
8.903166
9.405025
8.732892
8.743134
9.188663
9.477999
9.639707
9.747248
9.400299
8.831868
9.547132
9.664031
9.427185
9.328606
9.488637
10.053228
10.095931
9.335462
9.174975
9.710120
8.840830
8.301448
8.578573
8.168893
8.527364
8.751408
8.989534
9.156655
9.202744
9.265477
9.535610
9.856070
9.812541
9.757490
9.708840
9.706280
9.914961
9.995617
10.147141
10.149702
10.195791
10.217555
10.189389
10.211154
10.240600
10.284128
10.276446
10.263644
10.258523
10.296931
10.325096
10.339179
10.303332
10.270045
10.314855
10.314855
10.308454
10.247001
10.179148
10.159944
10.189389
10.136899
9.841161
9.953823
10.259804
9.487812
9.558226
10.136899
9.924377
9.823237
9.336742
8.831868
8.744414
8.941573
9.292362
9.495922
9.774133
9.962330
9.759225
9.837320
9.332901
9.939285
10.028903
10.272606
10.113854
10.495370
10.573602
10.353398
10.023093
9.891227
10.142020
10.134339
10.016556
10.086969
10.118976
10.199632
10.212434
10.229077
9.587671
9.971746
9.341863
8.831868
9.020949
8.971019
9.486960
9.583376
9.615382
9.881674
9.726764
9.722923
9.713962
9.904718
10.103158
10.483848
10.098628
10.346996
10.454537
10.431494
10.386684
10.102468
10.097347
10.290666
10.323952
10.368761
10.085825
10.638894
10.522391
9.887386
9.483971
9.391793
9.506560
9.882955
9.735725
9.607700
10.062190
9.473729
10.080113
9.332901
8.839549
8.855797
8.789224
9.215548
9.488241
10.017381
9.787391
9.336742
8.831868
9.594501
9.324764
9.420784
9.095599
8.941969
8.342416
8.910159
9.095796
9.585540
10.101877
10.197071
10.025517
10.492809
10.298347
10.128074
9.837457
10.143301
9.334182
9.744687
10.101877
10.239320
9.892371
10.469765
10.608168
9.979565
9.335462
8.881798
9.301324
9.588100
9.510401
9.542407
9.003422
9.762610
9.486076
9.850948
10.086514
10.505611
10.294506
10.672180
10.384124
10.338035
10.510869
10.716990
10.883422
10.916709
10.802767
11.072900
11.411105
10.909246
10.970698
10.895164
10.791463
10.691604
10.840113
10.814507
10.680081
10.989902
10.366419
10.509588
10.587684
10.732352
10.971760
11.006545
11.053914
10.992462
11.175538
11.176819
11.006545
11.089762
11.308684
11.133290
11.225469
10.339534
10.194647
10.573602
10.638894
10.693945
10.807887
10.014132
9.836176
9.800193
9.635040
10.312294
10.357102
10.431357
10.610593
10.800206
10.526232
10.448136
10.553117
10.667060
10.733633
10.800206
10.688824
10.565920
10.521111
10.690104
10.670900
10.818130
11.001205
11.165297
10.968138
11.001424
11.293322
10.336973
10.291945
9.834896
9.464767
9.080236
9.185217
9.845827
10.026342
10.129218
10.127937
10.266205
10.363504
10.368625
10.407033
10.535058
10.772040
10.852696
10.810448
10.732352
10.819409
10.814288
10.466060
10.495506
11.101065
11.256194
11.142252
11.003984
11.257475
11.389340
11.192182
11.313806
11.224188
11.413665
11.313806
11.381659
11.233150
11.437990
11.580098
11.813755
11.615315
11.747182
11.771506
11.701093
11.585870
11.684449
11.807353
11.852162
11.785589
11.740781
10.944464
11.521207
11.863685
11.854723
11.503934
11.503934
11.867525
11.786869
11.789430
11.350304
11.027680
11.398953
11.153145
10.838202
10.623750
11.276678
10.840113
10.728730
10.338254
10.243297
10.103749
9.837457
10.088250
10.216275
9.581270
10.181708
10.359663
10.401912
10.394230
10.583707
10.759238
10.751556
10.815569
10.868059
11.113868
11.560894
10.991833
10.839483
10.339534
10.154959
9.836176
10.193231
9.372589
10.076273
9.909015
10.309733
10.371185
10.572185
10.944874
10.775881
11.098504
11.381659
10.918208
11.164016
11.244672
11.329168
11.482799
11.675488
11.727978
11.767666
11.661405
11.690850
11.726698
11.768946
11.784309
11.753583
11.817595
11.702373
11.049444
11.142902
11.553864
10.966228
10.336973
10.309870
9.843858
9.652965
10.133059
10.267485
10.401912
9.850123
10.177868
9.521098
9.815557
10.344300
9.562066
10.106174
10.482568
9.838737
9.848843
10.446720
9.354666
8.835709
9.570177
10.121081
10.336618
10.446720
10.513293
10.943594
9.837457
10.299491
9.512136
9.468608
9.574414
9.994336
9.924377
9.912855
10.069046
9.539021
10.221396
10.026797
10.280288
10.624676
11.067779
11.268997
11.281799
11.321487
11.347093
11.235710
11.280519
11.170418
11.403423
11.348372
11.353494
11.312526
10.764578
10.417629
10.719550
10.618410
10.032055
10.285544
10.431494
10.674741
10.774601
10.637614
10.048698
9.837457
9.563347
9.350824
10.098037
10.508172
9.891227
9.978148
10.199632
10.340460
10.398070
10.442880
9.903893
10.131779
10.532497
11.101065
10.943812
10.695444
10.338254
10.746435
10.334194
10.761798
9.991087
9.834896
10.290529
9.432761
9.460471
9.459191
9.821503
9.594898
9.468153
8.831868
9.319248
9.558655
8.831868
9.481840
10.123642
9.955104
10.231638
10.239320
10.459523
10.240600
10.387829
10.217555
10.405752
10.540178
10.521111
10.928231
11.076740
10.482923
10.376661
10.252258
10.331634
9.868182
9.334182
8.829308
8.302728
8.381414
8.751408
8.949846
9.127210
9.077280
9.140013
9.234751
9.335891
9.559935
10.055788
10.240600
9.924377
10.390389
10.424956
10.487688
10.825810
10.845015
10.581283
10.499347
10.309870
10.724671
10.443015
10.480143
9.947558
9.395634
9.304280
9.264593
9.319644
9.985374
10.351982
10.359663
10.357102
10.472325
10.924390
10.917989
10.997365
11.083361
11.018067
11.000144
10.540533
10.336973
9.837457
10.098492
10.133059
10.426236
10.542739
10.400767
10.541595
10.681143
10.942314
10.975600
11.034711
11.092322
11.138412
10.897724
10.782501
10.631432
10.508527
10.564858
10.676240
10.829870
10.733851
10.925889
10.721049
10.424030
10.386684
10.312429
10.294506
10.531353
10.156240
10.276583
9.836176
9.978148
10.202192
10.559382
9.980844
9.841297
10.165065
9.334182
8.998301
9.186498
8.929167
9.510005
9.783094
9.821503
10.013540
10.208593
9.985829
10.323816
10.510733
9.951399
9.947422
10.080568
9.892371
9.596633
10.207314
10.208593
10.245721
9.819397
9.833480
10.057524
9.964066
9.664487
9.334182
9.848388
9.934165
10.062190
9.905173
9.887250
9.742581
9.332901
8.831868
8.305288
8.360930
8.569612
8.858949
9.024101
9.508725
9.596178
8.834428
8.625351
9.562495
9.177536
9.717802
9.630745
9.625624
9.291478
9.338847
9.548809
9.839426
9.886795
10.092916
10.441599
10.554261
10.804047
10.736194
10.577442
10.490385
10.234335
10.708028
10.834773
10.766919
10.740034
10.687544
10.532633
10.728512
10.804047
10.856537
10.253538
10.556958
9.836176
9.334182
9.770292
9.688356
9.870152
8.833148
8.301448
8.948566
9.394783
9.184821
8.305288
7.806581
8.562133
9.090674
9.364057
8.304008
7.804021
8.395700
8.596700
9.095796
8.726491
8.438435
8.871751
9.095796
9.581699
8.834428
8.365460
7.960212
9.084273
9.476719
9.349090
8.835709
8.304008
8.523522
9.045865
9.316688
8.684243
8.521651
8.379543
8.691236
9.085553
8.761058
9.113127
8.489645
8.302728
8.724523
8.979293
9.353814
9.243712
9.201465
8.606148
8.302728
8.517121
8.935763
8.700886
9.292362
9.442152
8.994460
8.830587
9.196343
8.307849
7.910282
8.492999
8.814140
8.363491
8.488955
8.217543
8.796216
9.059948
9.428069
9.536891
9.649949
8.898440
9.462636
8.831868
9.243712
8.443556
8.766770
8.043428
7.805302
7.429110
8.099676
8.003943
7.701804
7.823428
8.253592
8.573655
8.104880
8.638745
8.779573
9.026662
9.036312
8.845554
9.206586
9.562495
9.370853
8.847231
8.301448
7.948689
8.271313
7.811703
8.060274
8.563414
8.751408
8.020384
8.271313
7.834747
7.580180
8.106363
8.468675
8.604178
8.887115
8.975451
9.125930
8.794345
8.302728
7.804021
8.069236
7.728689
7.732530
7.796543
8.038510
8.180618
8.376496
7.791421
8.084599
7.946332
7.637791
8.578776
8.980573
8.302728
7.804021
8.413624
8.484037
8.597777
8.497918
8.810299
7.957652
8.528644
7.860353
8.596700
8.638745
8.158651
8.099759
7.804021
7.377900
8.035664
7.304926
7.915320
6.970494
7.563251
8.072791
8.313765
7.964255
8.596700
8.934484
9.274439
9.323089
9.364057
9.311566
8.745695
9.207866
9.192503
9.357656
9.003026
9.489521
9.320924
9.267154
8.956052
8.302728
8.039588
8.544006
8.327644
8.190658
8.506880
8.821821
8.584975
8.491516
8.468472
8.666911
8.898637
8.985694
8.455078
8.301448
8.949846
8.304008
7.951250
8.454390
8.628504
8.412141
8.591376
8.509440
8.536325
8.686114
8.922961
9.039464
9.179700
9.355095
9.342292
9.270598
9.205305
9.556094
9.925202
9.758770
9.416943
9.507841
9.680675
9.761331
8.831868
8.950535
9.179700
9.451114
9.479675
9.237707
9.377255
9.116084
9.247950
8.834428
8.302728
8.305880
7.900040
7.618587
8.212625
8.332968
8.533968
8.552969
8.560650
8.290517
8.878153
9.071470
9.157936
9.361496
9.479280
9.639707
9.713962
9.758770
9.396459
9.240268
9.409262
9.701159
9.900878
9.939285
9.931604
9.569293
9.358051
9.660191
9.708840
9.941846
10.076273
10.140740
9.681129
9.752824
9.430201
9.617943
9.637146
9.474554
9.543688
9.931604
9.626904
9.255631
9.350369
9.895757
8.903562
8.796905
8.839153
8.302728
9.058668
9.488241
8.833148
9.064478
8.606148
9.497203
8.838269
9.381980
9.428069
9.574018
9.885515
9.929044
9.962330
10.070326
10.039600
9.943582
10.089530
10.161224
10.062645
9.364907
9.556490
9.894477
9.708840
9.777974
9.856070
9.976413
9.932059
9.935900
10.033199
9.377710
10.059629
9.541582
9.334182
8.849792
9.361496
8.686803
9.397343
9.591942
8.939409
9.431910
9.532166
9.735725
9.907279
9.052071
9.624344
9.978973
9.861645
9.428920
9.574414
9.059752
9.537287
9.975133
9.642722
9.335462
9.326045
9.687076
9.510401
9.208261
9.383657
9.776693
9.279956
9.699879
9.866311
9.871432
9.720363
9.678114
8.830587
9.305165
9.460075
8.957333
8.302728
9.075312
8.309129
8.979293
9.559935
9.660191
9.884234
9.757490
9.374695
9.579535
9.692197
9.926483
9.909840
9.775414
9.970012
10.212434
9.957664
9.439162
9.270994
9.493758
9.352930
9.482236
8.831868
8.414109
7.928205
7.351015
7.976772
8.596700
8.919121
8.948566
8.873720
9.122089
8.778981
9.166898
8.928771
9.465197
9.633306
9.697318
9.824063
9.779254
9.818942
9.981534
9.363627
9.176255
8.831868
8.913408
9.270598
9.540731
9.739566
9.802299
9.777974
10.034024
9.828359
10.053683
9.930779
9.706735
10.047281
10.158664
10.171466
10.195791
10.094651
9.646563
9.537742
9.336742
8.918925
8.461479
8.499887
8.996624
8.839153
8.867319
9.591942
9.932884
9.897038
9.881674
10.014820
10.188109
10.302052
10.254683
10.241880
10.241880
10.070326
10.349422
10.261084
10.253403
10.190670
10.203472
10.104893
10.184269
10.039600
9.413557
9.844547
9.717802
9.374695
9.452790
9.185217
9.710120
9.715241
9.905999
9.939285
9.994336
10.071607
10.140740
9.864205
9.545423
9.756664
9.610716
9.599194
9.571028
9.422519
8.979096
9.020064
9.324764
9.496319
9.249229
9.379815
9.432306
9.496319
9.372134
9.365733
9.107121
9.198020
9.205701
9.253071
9.098160
9.153211
9.040548
9.067434
8.984218
8.985497
9.050791
8.830587
8.680402
8.656077
8.903166
8.598466
8.554937
9.013268
9.225789
9.260356
8.702167
8.333454
7.947410
8.587738
8.188097
8.305880
8.238027
8.312282
8.842305
9.048426
8.995344
9.086242
8.853236
8.754657
8.681683
8.344976
8.390376
8.093358
8.150970
9.010018
9.233471
9.124649
9.049114
9.105446
9.051675
9.009427
9.028630
8.885242
8.858357
8.612549
8.553658
8.446116
8.577293
8.666911
8.660510
9.003617
9.168178
9.200184
9.275720
8.987662
9.022229
8.745695
8.548536
8.633033
8.663759
8.781542
8.337295
7.804021
7.303646
6.828386
6.621119
6.540464
7.140902
7.554423
8.003657
8.139650
8.170376
8.167815
8.345771
8.409783
8.428987
8.452031
8.526083
8.376294
8.180415
8.643867
8.494077
8.396778
8.334045
8.357090
8.366052
8.346848
8.335326
8.373734
8.427504
8.439026
8.437746
8.423663
8.441586
8.544006
8.622102
8.656669
8.404459
8.227784
8.162492
8.167613
7.865473
7.975778
8.235669
8.302242
8.399541
8.454592
8.492797
8.070313
7.804021
8.043632
8.359854
8.318885
8.267675
8.213904
8.015466
7.942491
8.085879
8.120446
8.085879
8.124287
8.155013
8.135809
8.106363
7.694122
7.641632
8.190860
7.668517
8.403382
7.761976
7.787581
8.248471
8.335528
8.430267
8.354733
8.303522
8.420025
8.060274
7.954013
8.178058
7.759415
8.252312
7.470078
7.313888
7.995976
8.202382
8.084599
7.418868
7.911479
7.629824
7.838505
7.218863
6.809183
6.895093
7.058966
6.966788
7.412315
7.453283
7.323843
7.679754
7.998537
8.121726
8.151173
7.915606
7.957854
8.085879
7.979619
8.030828
8.024427
8.019306
8.078197
8.071796
8.123007
8.052593
8.052593
7.822147
8.050033
8.206223
8.043632
8.006504
7.791421
7.699244
7.613467
7.623709
7.402225
7.271353
7.183016
7.125405
7.194538
7.515882
7.416022
7.287997
7.389136
7.287997
7.332806
7.476194
7.396818
7.519722
7.555569
7.591416
7.551729
7.623423
7.670792
7.618301
7.599098
7.544047
7.389136
7.226544
7.159971
7.223984
7.332806
7.407060
7.431385
7.444187
7.492837
7.531244
7.515882
7.472353
7.478754
7.441627
7.450589
7.448028
7.477474
7.483875
7.471073
7.480034
7.474914
7.451869
7.414742
7.412181
7.409621
7.408340
7.400659
7.373774
7.341767
7.302079
7.295678
7.311041
7.279035
7.276474
7.257271
7.240627
7.279035
7.272634
7.299519
7.247028
7.371213
7.230385
7.378894
7.272634
7.375054
7.477474
7.503079
7.514601
7.506920
7.521002
7.544047
7.527404
7.544047
7.522283
7.501799
7.565811
7.586295
7.522283
7.553009
7.578614
7.561971
7.591416
7.634945
7.669512
7.657990
7.618301
7.604219
7.593977
7.554289
7.515882
7.533805
7.593977
7.558130
7.509480
7.496678
7.582455
7.550448
7.555569
7.604219
7.564531
7.572213
7.573493
7.586295
7.592697
7.577333
7.560690
7.558130
7.579894
7.593977
7.577333
7.577333
7.583735
7.600378
7.572213
7.611900
7.661830
7.645187
7.629824
7.643907
7.637506
7.627264
7.595257
7.547888
7.559410
7.586295
7.570932
7.563251
7.570932
7.558130
7.392977
7.391697
7.398098
7.277755
7.161252
7.168933
7.235507
7.514601
7.622142
7.606780
7.595257
7.606780
7.501799
7.451869
7.432665
7.430105
7.462111
7.448028
7.458270
7.570932
7.593977
7.590136
7.592697
7.578614
7.547888
7.495398
7.454429
7.473633
7.456990
7.459550
7.456990
7.451869
7.609340
7.625983
7.496678
7.468512
7.468512
7.500518
7.509480
7.482595
7.474914
7.472353
7.474914
7.455709
7.526124
7.614461
7.518442
7.517162
7.513321
7.522283
7.508200
7.491557
7.469792
7.473633
7.491557
7.485156
7.541487
7.623423
7.656709
7.517162
7.441627
7.527404
7.492837
7.478754
7.439066
7.423703
7.399379
7.367372
7.328965
7.186857
7.170214
7.206060
7.330245
7.343048
7.282876
7.216302
7.131806
7.163812
7.052430
6.866794
6.904055
6.991112
7.094813
7.153705
7.189551
7.190832
7.175469
7.152424
7.175469
7.179309
7.153705
7.138341
7.138341
7.129380
7.117857
7.110176
7.116577
7.024399
7.000074
7.056405
7.089692
7.020558
7.003915
7.181870
7.079450
7.098654
7.108896
7.103775
7.122978
7.105055
7.111456
7.114017
7.099934
7.119138
7.099934
7.080730
7.089692
7.070488
7.060246
7.067927
7.062807
7.056405
7.033361
7.038482
7.023119
7.029520
7.007756
7.005195
7.033361
7.042323
7.050004
7.053845
7.044883
7.050004
7.030800
7.001355
6.887412
6.909176
6.916858
6.909176
6.888692
6.881011
6.891253
6.863087
6.818278
6.783711
6.804196
6.900215
6.918138
6.943743
6.924540
6.924540
6.921979
6.900215
6.878450
6.892533
6.887412
6.866928
6.806756
6.797794
6.795234
6.850285
6.851565
6.816998
6.987272
6.791393
6.726100
6.820839
6.870769
6.782432
6.755546
6.744024
6.650566
6.744024
6.694094
6.673610
6.642884
6.819559
6.715858
6.553267
6.609597
6.648005
6.681292
6.758107
6.744024
6.755546
6.724820
6.728661
6.727381
6.726100
6.709457
6.668489
6.645444
6.665928
6.705616
6.712018
6.706897
6.727381
6.618559
6.580152
6.546865
6.525101
6.486693
6.448286
6.438629
6.428387
6.432228
6.413024
6.349011
6.268356
6.246592
6.183859
6.156974
6.142891
6.122407
6.128808
6.180018
6.254273
6.288840
6.279878
6.291400
6.283719
6.293961
6.283719
6.290120
6.288840
6.249152
5.949573
5.937327
5.806741
6.092237
6.295797
6.308600
6.300919
6.318842
6.276594
6.021823
5.873314
5.317685
5.467899
5.261778
5.458937
5.709867
5.638173
5.352676
5.786682
5.899344
5.995363
5.994938
5.943728
5.787538
5.874595
5.632627
5.726085
5.466194
5.577576
5.532767
5.545570
5.487958
5.768333
5.769614
5.671034
5.637748
5.637748
5.691519
5.678716
5.687678
5.674875
5.548131
5.722245
5.754251
5.752971
5.704321
5.710722
5.751690
5.382978
5.159359
5.283543
5.361638
5.320670
5.323231
5.556236
5.242575
5.521669
5.435893
5.355237
5.118390
5.091505
5.327071
5.328351
4.940435
4.996214
5.507035
5.674019
5.658657
5.405167
5.411568
5.499905
5.448695
5.401326
5.316829
5.287384
5.318110
5.261778
5.394925
5.392364
5.369319
5.369319
5.458937
5.442294
5.487103
5.377001
5.225932
5.284823
5.260498
5.179842
5.210568
5.251536
5.379561
5.302747
5.234893
5.240014
5.355237
5.342434
5.305307
5.291224
5.297626
5.306587
5.256658
5.218250
4.996767
5.103027
5.219530
5.274581
5.333473
5.382122
5.380842
5.211849
5.339874
5.475581
5.457657
5.397485
5.437173
5.533192
5.484542
5.489663
5.414128
5.498625
5.494784
5.484542
5.455097
5.400046
5.296345
5.338593
5.336033
5.369319
5.236174
5.295065
5.341154
5.557517
5.670179
5.831491
5.949274
6.105040
6.165212
6.215142
6.230505
6.202339
6.307320
6.377734
6.396937
6.354689
6.393096
6.436625
6.530084
6.669075
6.748450
6.791979
6.817584
6.803501
6.785577
6.771495
6.731807
6.672915
6.622985
6.599941
6.584578
6.561533
6.533368
6.544890
6.523126
6.528247
6.526967
6.528247
6.528247
6.528247
6.537209
6.544890
6.564094
6.587139
6.592259
6.639629
6.809902
7.033947
7.020558
7.101214
7.354704
7.348303
7.306055
7.280449
7.234360
6.872049
6.764508
6.628801
6.649285
6.681292
6.728661
6.723540
6.459808
6.764508
6.870769
6.539184
6.310019
5.810026
5.406023
5.803325
5.785401
5.781561
5.744433
5.668899
5.713707
5.789242
5.777720
5.839172
5.876299
5.950554
6.017983
6.032065
6.069193
6.152409
6.106320
6.140887
6.071754
6.014142
5.957811
6.028225
6.088397
6.076874
6.066632
6.166492
6.316281
6.126804
5.939888
5.589098
5.557092
5.311284
5.312989
5.193925
4.830334
4.838744
5.090953
5.079431
5.277870
5.443022
5.629211
4.809850
4.315121
4.188752
4.306535
3.989033
4.428159
4.461445
4.726458
4.810954
4.922336
4.958183
5.153686
5.270188
5.545443
5.644574
5.656096
5.757236
5.786682
5.837892
6.044013
6.038467
5.833627
5.947569
5.869473
5.847709
5.696640
5.837467
5.398341
5.047976
4.811130
5.371328
5.554404
5.689383
5.260498
4.809850
4.312560
4.490891
4.731578
4.705974
4.420477
4.462726
4.536980
4.735419
4.757184
4.932578
4.677808
4.000555
3.814918
4.083099
4.282818
4.199602
4.349391
4.486378
4.467846
4.675247
4.798151
4.874967
4.909534
5.097731
5.343163
5.404615
5.482710
5.613848
5.603606
5.606166
5.620249
5.722669
5.811007
5.835331
5.876299
5.828930
5.616408
5.784121
5.779000
5.661217
5.749555
5.694504
5.549835
5.442294
5.373160
5.407727
5.425651
5.506307
5.649695
5.796924
5.987681
6.111441
6.250988
6.212581
6.242027
6.242027
6.230505
6.321403
6.306039
6.128085
5.311284
5.466619
4.849537
4.312560
4.958183
4.385534
3.813638
4.088220
4.199602
4.226487
4.455652
4.481929
4.609954
5.101571
5.037183
4.543005
4.374012
4.732859
4.846801
4.995310
4.920680
4.978291
5.020539
5.462226
4.966040
4.868741
4.932202
4.950126
4.354808
4.704693
5.106692
5.425099
5.535201
5.621529
5.850694
5.914707
6.072178
6.272753
6.414861
6.490396
6.502642
6.503922
6.550011
6.590979
6.777896
6.606342
6.927685
7.000660
7.047443
6.667209
6.883571
6.991112
6.923259
6.827240
6.722260
6.845164
6.636483
6.706897
6.690253
6.512298
6.464929
6.363789
6.386139
6.592259
6.643469
6.670355
6.761253
6.606342
6.252993
6.388700
6.439909
6.374617
6.277318
6.345171
6.388700
6.432228
6.428387
6.511604
6.612743
6.597381
6.167216
5.979019
5.808745
5.308723
5.675300
5.716268
5.766198
5.800765
5.986401
6.152409
5.473876
5.311284
5.064620
5.718828
5.328351
4.811130
4.315121
4.411516
4.862164
4.997871
5.230501
4.774731
5.400774
5.603054
5.350116
5.082543
4.809850
4.852826
5.019259
4.946285
4.909157
4.845145
4.779852
4.869470
4.974450
5.203615
5.336761
5.354685
5.453264
5.520390
5.407727
5.434612
5.375721
5.270740
5.229772
5.200326
5.242575
5.182403
5.140154
5.073582
5.042855
5.044136
5.045416
5.064620
5.094066
5.150396
5.044136
5.021091
4.977562
4.896907
4.889954
4.929641
4.982132
5.003896
5.010297
5.002616
4.911718
4.879712
4.925801
4.910438
4.879712
4.860508
4.710718
4.418821
3.939103
3.549234
4.129188
4.122787
4.121506
4.193201
4.273856
4.509423
4.910814
3.989033
4.794311
3.912217
4.232888
4.407002
3.330311
3.127500
3.541021
3.777868
3.895651
4.110733
4.444130
4.543989
4.426878
4.453764
4.528018
4.535700
4.608675
4.723897
4.827598
4.931298
5.022196
5.087112
5.154966
5.180571
5.235621
5.304755
5.384131
5.428940
5.430220
5.446863
5.371880
5.599765
5.547275
5.658657
5.599765
5.704746
5.471740
5.512708
5.485823
5.505026
5.621529
5.656096
5.604886
5.567759
5.561357
5.485823
5.141435
5.318110
5.389804
5.565198
5.488383
5.766198
5.379561
5.492224
5.675300
5.901905
5.982560
6.149849
6.030785
6.235626
6.300919
5.905321
5.318965
4.811130
4.941164
5.170329
5.381570
5.108877
5.156246
5.248424
5.531360
4.871302
5.074310
4.704317
5.001336
4.315121
4.126019
4.675247
4.694451
5.084928
5.400774
5.243303
5.473749
5.174721
5.520390
5.825089
5.697064
5.725230
6.033771
6.152409
6.218982
6.280435
6.321403
6.352129
6.416141
6.445587
6.470635
6.550011
6.493680
6.516725
6.505202
6.284999
6.432228
6.452712
6.512884
6.543610
6.429667
6.135210
6.340050
6.515444
6.720284
6.880316
6.816304
6.386139
6.315725
6.363094
6.450151
6.468075
6.397661
6.455273
6.484718
6.246592
6.309324
6.346451
6.311884
5.943172
6.386695
6.431504
6.192097
6.148569
5.613423
5.349691
5.499905
5.351396
5.444854
5.492224
5.607447
5.796924
6.052974
6.363651
6.448147
5.912446
5.310003
5.069741
5.283543
5.578001
5.519109
5.729070
5.804605
5.636892
6.100343
5.962932
6.033346
5.438029
5.323231
5.152957
5.524230
5.933911
5.963356
5.659512
5.583977
6.057671
6.001339
5.476436
6.344447
5.982136
6.076874
6.329084
6.312441
6.463511
6.564094
6.338769
6.341330
6.544890
6.546170
6.599941
6.825265
6.921284
6.999380
6.951425
7.012877
6.877170
6.715858
6.367630
6.160815
6.411744
6.553852
6.721565
6.806062
6.868794
6.551291
6.149292
5.808745
5.516124
5.641589
5.568614
5.544290
5.555812
5.560933
6.064072
6.508319
5.932930
5.541729
5.407303
5.644574
5.734191
5.677860
5.671459
5.839172
5.954395
5.851550
6.060231
6.195938
6.210021
6.533924
5.808745
5.391940
5.502466
5.670179
5.652255
5.766198
5.831491
6.051694
6.225384
6.250988
6.469912
6.375897
6.378458
6.382298
6.398942
6.325967
6.488559
6.569215
6.616584
6.725406
6.857272
6.946889
7.037201
7.020558
7.025679
7.044883
6.813158
6.916858
6.950144
7.083291
7.211316
7.308615
7.409755
7.348303
7.345742
7.330379
7.347023
7.321417
6.618559
6.806756
7.108896
7.134501
7.555704
7.814180
7.905078
7.610620
7.209901
7.917881
7.394258
7.745047
7.656709
7.659270
7.672072
7.494117
7.870511
8.091995
8.427707
7.955294
7.303646
6.983297
7.570932
7.652868
7.955008
7.665957
7.767097
7.315168
6.905201
7.289411
7.035921
7.366226
7.565946
7.850027
7.979332
8.170376
8.375216
8.535248
8.013983
7.804021
7.304926
6.837348
7.107615
7.010316
6.969348
7.093533
7.430239
7.390551
7.600513
8.070230
7.765817
7.304926
7.127965
7.446748
6.806622
6.930941
7.489130
7.449308
7.631104
7.572213
7.276474
7.391697
7.104921
7.905078
7.139487
7.390417
6.815584
6.308738
5.949573
6.480154
5.920127
6.601778
6.246592
5.921408
6.256110
6.596657
7.091558
7.330379
7.597952
7.775773
8.026702
8.268955
8.284319
8.003943
8.376496
8.394420
8.024427
8.344490
8.267675
8.329127
8.317605
8.460993
8.602899
8.343007
8.323804
8.510720
8.362211
8.528644
8.266192
8.216262
8.191937
8.095919
7.885957
7.882319
7.945052
7.881039
7.875918
7.924568
7.842632
7.810625
7.822147
7.831110
7.756855
7.729970
7.761976
7.781179
7.879759
7.525129
7.631390
7.546894
7.681320
7.887440
7.966816
7.968096
7.988580
8.009065
7.459836
7.449594
7.436792
7.330245
7.577333
7.549168
6.816864
6.526381
6.331783
6.483438
6.491119
6.608903
6.652431
6.998099
7.210035
7.243322
7.367507
7.564665
7.142048
6.806622
6.308738
6.127528
6.062235
5.909885
6.035906
6.180575
6.391816
5.312564
6.090101
6.253549
5.311284
4.887945
5.540321
5.703465
5.412848
6.045292
6.407179
6.220263
6.459670
6.174897
6.258114
5.810026
6.140887
6.597937
6.794539
6.871355
6.999380
6.502056
6.801635
7.000074
6.495655
6.425241
6.891839
6.826546
6.469355
6.876475
6.638349
7.036507
6.682572
6.822119
6.910457
6.851565
7.092252
7.111456
7.405914
7.443041
7.545327
7.669512
7.636225
7.668231
7.743766
7.814180
7.652868
7.521002
7.430105
7.718161
7.779613
7.768091
7.151010
7.003781
7.172774
7.371213
7.085717
7.008902
7.008902
7.238067
6.873195
6.452127
6.194101
6.509043
7.091558
7.244602
7.148583
7.370067
6.462368
6.827240
6.833642
6.811877
6.494375
6.946304
7.299653
6.831081
6.518700
6.307458
6.370776
6.678036
6.745890
6.793259
6.943048
7.029520
7.111456
7.131940
7.307334
7.083291
6.454687
7.057685
6.628801
6.683852
7.076890
7.069208
7.010316
7.033361
7.032081
7.043603
6.727381
6.796514
6.336904
6.772775
6.443750
6.868794
6.661393
6.393820
6.981456
6.788833
6.692814
6.722260
6.934782
7.039762
6.971909
7.195953
7.160106
7.056405
6.755546
6.307458
5.839471
5.997499
6.169053
5.925805
5.984696
6.114002
6.517281
6.383578
7.048029
6.310019
5.808745
6.097358
6.592816
5.826669
6.244587
6.567211
6.023828
6.587139
6.433508
5.908605
6.313721
6.587695
7.101799
7.376468
7.476328
7.537646
7.465951
7.327684
7.312322
7.440347
7.533805
7.558130
7.564531
7.573493
7.615741
7.797537
7.870511
7.935804
7.952447
7.989861
7.982179
8.055154
8.137090
8.219026
8.284319
8.288159
8.289439
8.284319
8.274076
8.271516
8.238230
8.131968
8.207503
8.306083
8.368815
8.412344
8.376496
8.262554
8.244631
8.157574
8.093561
8.210064
8.147331
7.998822
7.898962
7.861835
7.881039
7.906644
7.918167
7.905364
7.804224
8.005223
8.190860
8.257433
8.256153
8.217746
8.219026
8.252312
8.238230
8.299682
8.294560
8.263834
8.247191
8.280478
8.382898
8.437948
8.542727
8.559370
8.554249
8.450548
8.360930
8.326364
8.404459
8.467192
8.318683
8.367332
8.441586
8.348128
8.298199
8.490236
7.934607
8.573655
8.775732
8.185536
8.107441
7.802741
7.330531
7.550448
7.364812
7.191978
7.491557
7.441627
7.682314
7.811620
8.093275
7.855434
7.304926
6.816864
6.571190
6.953985
7.427678
7.403354
7.536500
7.908919
8.057428
8.420025
8.448191
8.499198
8.592656
8.519682
8.656669
8.842305
7.951250
8.389096
8.615701
8.485115
8.631063
7.965333
8.506880
8.513281
8.752687
8.468472
8.549128
8.873032
8.979293
8.580543
8.301448
7.832187
7.384302
7.521002
7.363532
7.664391
7.997256
8.394420
7.421429
7.244468
6.806622
7.600513
7.053710
6.807902
6.639043
6.934782
7.175469
7.600513
7.901237
8.033103
8.592859
8.646427
8.261071
9.006178
9.198904
9.127210
8.941573
9.204025
9.132331
8.930051
9.070879
9.302605
9.321808
9.150254
8.803307
9.045274
9.315407
9.253955
9.273159
9.497203
9.729324
9.669152
9.785655
9.865031
10.004579
9.449404
8.834428
9.156655
9.138732
8.750816
9.191222
8.631753
8.440995
7.911562
7.896402
8.096122
7.677479
7.948893
8.358573
8.484037
8.773171
8.966490
9.257795
9.140013
8.901886
8.301448
7.805302
7.303646
7.582455
7.651588
7.535085
7.536366
8.016460
8.097402
8.303522
8.521165
7.844989
8.590299
8.559370
8.033186
7.832187
7.818307
7.445754
7.672072
7.573493
7.926842
8.013900
7.438072
7.462111
6.806622
7.434080
7.558264
7.879473
8.099676
8.525005
7.901320
8.180618
7.704364
8.303522
8.551891
8.560650
7.948689
7.896199
7.895122
7.891281
8.128128
8.480197
8.640026
7.856512
7.349735
7.231666
8.099676
8.577497
8.021664
8.499198
8.117682
8.179135
8.832064
9.079152
8.580543
8.976140
8.864758
9.046555
9.284681
9.275720
9.397343
9.367897
9.457515
9.539847
8.980377
9.230026
9.466872
9.502720
9.273555
9.437427
9.610261
9.364452
9.157052
9.125046
9.354211
9.303000
9.135287
9.282516
9.521923
9.487356
9.415663
9.264593
8.949651
8.721370
8.978701
9.193783
9.106726
9.009427
8.845554
8.830192
8.690644
8.593345
8.630472
8.530613
8.444836
8.825663
8.902477
8.563210
8.057511
8.218822
8.942165
8.378263
8.326364
8.669472
8.693796
8.610579
8.678433
8.550408
7.970454
8.016543
7.805302
7.527689
8.107644
8.449471
8.439026
8.715561
8.504319
7.943569
7.476480
7.417588
7.419863
7.257271
7.267513
7.430105
7.980613
8.277917
7.449594
8.490439
8.604178
9.002337
8.375702
7.804021
7.303646
7.423703
7.387856
7.202220
7.679754
7.823142
8.019020
8.178058
8.131968
8.590299
7.957652
7.802741
7.713326
7.303646
6.809183
7.600513
7.601658
6.807902
6.920699
6.847724
7.585149
6.985857
7.421143
6.869354
7.106335
7.485290
6.807902
7.585149
8.051026
7.939931
8.510923
8.184256
8.578573
9.095796
9.593222
9.968731
10.054963
10.013995
10.103613
10.062645
10.184269
10.271326
10.252122
10.414714
10.471045
10.541595
10.344437
10.441735
10.445576
10.507029
10.599206
10.560799
10.450697
10.450697
10.302188
10.322672
10.227933
10.130634
10.017972
10.042296
9.933475
9.864205
9.889811
9.929499
9.873167
9.678569
9.604315
9.605595
9.691372
9.650404
9.496774
9.567187
9.631200
9.518538
9.515977
9.343143
9.352930
9.699879
9.630745
9.386217
9.615382
9.230026
8.888199
8.819949
9.447273
9.653790
9.227466
9.565452
9.655069
9.541127
9.071275
8.862594
8.302728
7.805302
8.014185
8.220305
8.190860
8.431547
8.431547
8.184459
8.418745
8.083319
8.216465
8.399541
8.446911
8.503038
8.752687
8.704039
8.947286
9.136171
9.246273
9.397343
9.100325
8.960777
8.521651
8.302728
7.865473
8.596700
8.182976
7.836028
7.700524
7.974497
8.207503
8.404662
8.498120
8.552969
8.654108
7.983256
8.060072
8.631063
9.068910
8.302728
7.804021
7.864396
7.997542
8.270236
8.363694
8.425146
8.391860
8.436668
8.672032
8.791096
9.049706
9.293643
9.325649
8.977421
8.981261
9.123369
9.283401
9.594501
9.653790
9.365733
8.831868
8.347537
8.437746
8.705318
8.412141
8.866631
8.867910
9.084273
8.802026
9.486960
8.938128
9.547132
9.811260
9.859910
10.040425
9.953823
9.958944
10.207314
10.280288
10.227798
10.295650
10.387829
10.467204
10.606888
10.637614
10.691384
10.669621
10.769480
10.846295
10.852696
10.946155
10.921830
10.166481
10.379003
10.818130
10.801486
10.824531
10.973040
11.100003
10.614788
10.674960
10.335693
10.645295
10.683702
10.604327
10.596645
10.618410
10.626092
10.650416
10.681143
10.866779
11.020410
11.115367
11.156335
11.196022
11.257475
11.050074
10.612227
10.645514
10.336973
9.864342
10.277727
10.171466
9.862926
9.850123
9.462207
9.336287
9.468153
9.512961
9.319644
9.765171
10.071152
10.267485
10.408313
10.537619
10.309870
10.010290
9.836176
9.334182
8.954772
8.529332
8.607428
8.558778
9.261637
9.566337
8.894600
8.626632
9.494642
8.843390
9.517687
9.806139
10.074992
10.339179
9.909015
10.031919
10.142020
10.334058
9.590232
9.524939
10.152263
10.382708
9.600473
10.092091
9.523659
9.896212
9.615837
9.414837
9.324764
8.933007
9.279560
9.594501
9.935445
9.004702
9.788216
10.057069
9.706735
9.930779
10.208593
10.426236
10.467204
10.591525
10.796365
10.789964
10.715709
10.733633
10.697785
10.562079
10.058940
10.065341
10.226653
10.591525
10.748996
10.553117
10.577442
10.843735
10.362360
10.124233
10.576161
10.558238
9.929635
9.926938
9.361067
9.043109
9.612822
9.886795
9.717802
9.447669
9.402860
9.615382
9.879114
9.620502
9.294039
8.968855
9.082401
9.145133
9.120809
9.146414
8.962057
8.999185
9.050395
9.143853
8.749536
8.730331
9.037592
9.324368
9.565056
9.916241
9.395179
8.833148
8.321932
8.328924
8.314841
8.250829
8.628504
8.903757
8.989534
9.266757
9.184821
8.309129
7.807862
8.317605
8.309923
8.450751
8.705318
8.779573
8.358370
8.920401
8.879433
9.071470
9.302605
8.928771
8.946694
8.935172
8.611268
9.443432
9.780535
9.551370
9.237707
9.894477
9.840706
9.708840
9.858629
9.311962
9.457911
9.848388
10.076273
10.235478
10.203472
10.166346
9.430201
10.009700
10.398070
10.415995
9.944861
10.286689
10.227798
10.281568
10.206033
10.052402
9.715696
10.253403
10.408313
9.990951
10.216275
10.581147
10.786123
10.380283
9.915552
10.500491
9.914271
9.386672
9.497599
8.833148
9.078561
9.214267
9.561215
10.086514
10.037040
10.122817
10.267485
10.281568
10.355823
10.454402
10.428797
10.526096
10.618410
10.491665
9.911711
9.864205
10.266205
10.134339
10.190670
10.038320
9.953823
10.012715
9.818116
9.659366
9.425079
9.660191
9.917521
9.873993
9.818942
9.690917
9.598739
9.364452
9.346529
9.856070
9.898317
9.930324
9.706280
10.064751
10.199632
10.240600
9.599194
9.334182
8.929167
8.589504
8.802026
8.762339
9.183541
9.360216
9.451114
10.082674
9.971746
9.395634
8.833148
8.419230
8.574733
8.423663
8.563210
8.875592
9.062509
9.553534
9.720363
10.009700
10.432637
10.581147
10.233054
9.836176
9.472448
8.877956
8.885242
9.003026
8.832752
8.758497
9.351254
8.786663
9.347413
9.015828
9.274439
9.476719
9.584656
9.597458
9.043109
8.894600
9.347413
9.581699
10.018661
10.070326
9.526219
9.334182
8.831868
9.576578
8.917645
8.302728
8.773171
9.093235
9.466476
9.310682
9.777974
10.122361
10.487688
10.661939
9.841297
10.279007
10.267485
10.625956
10.952556
11.084422
11.258755
11.426468
11.027029
10.815787
10.435553
11.093384
11.139691
11.194742
11.193462
10.581502
10.502126
10.497005
10.392024
10.504468
10.210010
10.498066
10.636333
10.646576
10.376443
10.276583
10.642735
10.661939
10.884703
10.914148
10.988403
11.101284
10.833712
11.016788
11.060316
10.925889
10.754335
10.700565
10.704406
10.718489
10.404827
9.837457
9.334182
9.884234
9.781815
8.831868
8.302728
7.805302
8.550611
8.313561
9.085553
9.543292
9.233867
10.071152
10.399351
9.825798
9.418678
9.098160
9.578255
9.364452
9.232587
9.422064
10.027623
10.407033
10.081848
10.351982
9.334182
9.770292
8.973976
8.567739
8.800746
9.079841
9.435751
9.429746
9.730604
8.898440
8.415390
8.942165
9.479280
8.854912
9.594501
10.123642
10.625956
10.349557
10.435334
10.367480
10.358519
10.691384
10.962798
11.125390
11.534009
11.834239
11.003355
11.165947
10.838202
10.980940
11.084641
11.582659
11.877768
11.879047
11.643481
11.017438
11.940499
12.019876
12.147218
12.161301
11.673525
12.257319
12.198428
12.135695
11.847639
11.919333
12.049919
12.084485
12.103689
12.181785
12.128014
12.145938
12.200989
11.752900
11.930855
11.924454
11.742659
11.526296
11.756741
12.103689
12.096007
12.008950
11.909091
11.850200
11.772104
11.699130
11.626155
11.679926
11.815633
11.966702
12.078084
12.108810
12.101129
12.128014
12.179224
12.206109
12.234275
12.250918
12.265001
12.293166
12.267562
12.332854
12.358459
11.839957
11.400831
11.519297
11.638360
11.721577
12.022436
12.108810
11.719614
11.510933
11.663282
11.692728
11.729856
11.893728
11.966702
12.044798
12.042237
12.065282
12.098568
12.207390
11.503251
11.969263
12.403268
11.416194
10.838202
10.701845
10.893883
11.347093
11.542971
11.903373
11.986588
11.581347
11.673525
11.825874
11.901409
11.516053
11.357303
10.838202
10.535413
10.837552
10.971978
11.248513
11.578817
11.712615
11.110896
10.838202
10.828590
11.405984
10.336973
9.838737
9.852683
10.172747
10.212434
10.552981
10.998645
11.610824
10.870209
11.518646
11.100655
11.621716
11.185151
10.961107
11.622346
11.588430
11.596112
11.475768
11.781749
12.108212
12.409670
12.331574
12.220192
12.244517
12.390466
11.726015
12.471122
12.581623
12.116892
11.914612
11.806671
11.742659
12.346937
12.553058
12.669960
12.494566
12.481764
12.741654
12.751897
12.388305
12.824871
12.965698
12.879922
12.808228
12.579062
12.808228
12.454878
12.680202
12.758298
11.840357
12.330294
12.227874
11.384188
10.838202
10.374101
10.723391
11.044734
11.545531
11.669086
11.693411
11.808634
11.786869
11.907213
12.094130
12.281644
12.313650
12.459599
12.453198
12.172823
12.614510
12.982342
12.458879
12.714769
12.914489
13.055316
13.289762
13.255196
13.238553
13.225750
13.060597
13.000425
12.762299
12.369262
12.556018
12.689164
12.924730
12.965698
12.975941
13.134852
12.930012
13.070840
13.081081
13.326890
13.364017
13.104126
12.342377
12.183465
12.358859
12.128414
12.017032
11.876204
11.992308
11.339379
11.091693
11.044323
10.854846
11.295882
11.628748
11.990430
12.568420
11.840357
11.418755
10.836923
11.381659
11.409824
10.335693
9.836176
9.332901
8.950932
9.594501
10.122361
10.314855
10.581147
10.476302
10.117831
9.872024
10.071607
10.545300
10.567200
9.836176
10.625956
11.127951
11.624907
10.952146
11.318927
11.407264
11.024468
11.612104
12.129977
12.599147
12.584184
12.671241
12.663559
12.678922
12.787744
12.808228
12.928572
13.027151
13.110527
13.230871
13.203986
13.207827
13.262877
12.794305
12.502408
13.128451
13.225750
13.342253
13.078521
12.876242
12.987623
12.955617
13.010668
13.013228
12.958178
12.969700
12.958178
12.474242
12.549617
11.855721
12.136976
12.088326
12.293166
12.361020
12.473682
12.475362
12.303808
12.000389
12.029835
12.061841
12.043918
12.194987
12.165541
12.069522
12.049038
12.152739
12.162981
11.869803
12.024314
12.185625
12.081925
12.156179
11.525016
12.308530
12.276524
12.012792
12.101129
12.209950
12.142097
12.198428
12.450638
12.473682
12.564980
12.237235
11.913332
11.933415
11.504532
11.755461
11.938537
12.093448
12.140817
11.979505
11.807951
12.028154
11.973104
12.129294
12.168983
12.224033
12.209950
12.206109
12.254759
12.346937
12.410950
12.440395
12.457039
12.419911
12.457039
12.517211
12.654597
12.559858
12.334535
12.588024
12.625152
12.767260
12.136095
11.935096
11.985906
12.198428
12.309810
12.423752
12.453198
12.554338
12.861999
12.863278
12.858157
13.001546
13.157897
13.146375
13.049075
13.040113
13.073400
12.946655
12.935133
12.882643
13.287202
13.184782
12.987623
13.028591
12.909528
12.341096
13.006666
12.487044
12.562579
12.781503
13.052917
13.174540
12.480643
12.292286
12.279484
12.275642
12.271802
12.215471
12.234674
12.212911
12.193707
12.297407
12.132255
12.168101
12.664840
12.342216
12.129694
12.177063
11.996548
11.885166
11.842518
11.962862
12.183064
12.318771
12.335415
12.222753
12.074244
12.265001
11.766983
12.250918
12.145938
12.184345
12.433994
12.540256
12.538095
12.425432
12.474082
12.403668
12.417750
12.431833
12.465120
12.497127
12.440795
12.553457
12.532973
12.515050
12.481764
12.564980
12.486884
11.840357
11.691448
11.988466
12.238115
12.363581
12.354619
11.416194
10.984152
10.839483
10.619909
10.704406
11.012946
11.628748
12.051882
12.104970
12.058881
12.144657
12.208670
12.271402
12.320052
12.377664
12.444236
12.482644
12.648196
12.672521
12.685324
12.682763
12.675081
12.663559
12.659719
12.660998
12.691725
12.730132
12.776221
12.810788
12.801826
12.765979
12.762138
12.755737
12.668680
11.840357
11.816913
11.955180
11.930855
12.024314
12.276524
12.325172
12.318771
12.602987
12.972100
13.073400
13.009387
13.011948
13.065719
13.092604
13.084923
13.110527
13.059318
13.043954
13.037553
12.995305
13.002986
13.017069
13.020909
12.996585
12.988903
12.951777
12.945374
12.919770
12.903127
12.889044
12.955617
13.077241
13.160458
13.163017
13.139974
13.097725
13.084923
13.077241
12.883923
12.972260
13.151495
13.143814
12.978662
12.949216
12.892884
12.822471
12.699567
12.384624
12.435675
11.941497
11.544219
11.824594
11.939817
11.825874
12.112651
12.348217
12.212511
12.040956
12.097288
12.222753
12.070403
11.921893
11.654321
11.747779
12.124173
12.390466
12.477523
12.695565
12.803106
12.448477
12.748055
12.659719
12.841515
12.737814
12.586744
12.517611
12.653317
12.611069
12.077204
11.927414
11.879645
11.973104
11.916773
11.533978
11.755461
11.677365
11.863002
11.839957
12.012792
12.151058
12.437835
12.087046
11.898849
11.632557
11.339379
10.972630
11.436709
11.172977
10.906686
10.783781
10.733851
10.806826
10.694163
10.833712
11.134570
11.289481
10.954055
10.833712
10.710807
10.811947
10.852915
10.704406
10.695444
10.802985
10.815787
10.851635
11.123048
10.914367
10.881081
10.819629
10.834991
10.730011
10.568699
10.612227
10.614788
10.928450
11.210105
11.216506
11.229309
10.787622
10.441954
10.490385
10.409729
10.143436
9.902749
10.194510
10.623395
11.085702
11.289481
10.657037
10.362578
10.490385
10.596645
10.737473
10.827091
10.957677
10.842454
10.599206
10.544155
10.636333
10.413569
9.936036
9.549264
10.440319
10.222676
10.592669
10.687544
10.563359
10.489104
10.709308
10.711868
10.974320
11.408545
11.478958
11.550023
11.491131
11.561545
11.432240
10.931662
11.349652
11.320207
11.059035
11.188341
11.216506
11.206264
11.183220
11.147373
11.301003
11.222908
11.041112
10.336973
9.836176
9.334182
9.466872
9.406701
10.105719
10.564504
10.582563
10.276583
10.564639
10.600487
10.613289
10.425092
10.390525
9.924514
9.686251
9.845002
9.943582
10.043441
10.089530
9.943582
9.797632
10.139460
10.188109
10.189389
10.136899
10.257243
9.933339
10.175307
10.181708
10.190670
9.939740
9.898772
9.814276
9.764346
9.750263
10.029358
9.974307
9.941021
9.768187
9.334182
9.014944
9.067434
9.214663
9.520643
9.706280
9.769012
9.790776
9.827904
9.845827
9.865031
9.899598
9.886795
9.886795
9.890636
9.859910
9.867592
9.858629
9.877833
9.890636
9.899598
9.866311
9.783094
9.706280
9.377255
8.915084
8.741854
8.718810
8.864758
8.802026
8.813548
8.796905
8.821230
8.819949
8.832752
8.827631
8.839153
8.848115
8.827631
8.839153
8.853236
8.866038
8.875000
8.880121
8.899325
8.931332
8.947975
9.004306
9.009427
9.023510
9.036312
9.102885
9.125930
9.091363
9.049114
9.013268
8.995344
8.992784
9.390942
9.539451
9.615382
9.177536
8.831868
8.329613
8.747567
8.346848
7.907722
7.925848
7.700524
7.717167
7.650594
7.781179
7.915606
7.983459
8.019306
8.033389
8.082039
8.073077
8.158854
8.220305
8.281758
8.331688
8.340650
8.385458
8.394420
8.389299
8.391860
8.404662
8.431547
8.454592
8.544006
8.569612
8.599057
8.618261
8.613140
8.605459
8.628504
8.618261
8.634905
8.642586
8.673312
8.693796
8.743726
9.091954
9.283401
9.319248
9.195064
9.444713
9.384936
9.393898
9.354211
9.022625
8.844670
8.965899
9.137452
9.211706
9.210426
9.111847
9.000465
8.930051
9.064478
9.074719
8.941573
8.979981
8.915968
9.301324
9.124649
8.972300
8.830192
8.919809
9.141293
9.191222
9.059357
8.978701
8.851955
8.796905
8.757217
8.781542
8.767459
8.872439
8.915968
9.250114
9.146414
9.302605
8.507568
8.304008
7.815544
7.814466
7.874638
7.648033
7.590422
7.813186
7.796543
7.841352
7.694122
7.494403
7.310047
7.316162
7.348168
7.848747
8.093275
7.896402
7.439352
7.254710
7.688715
8.099676
8.066675
7.303646
6.880877
6.736342
6.655686
6.608317
6.618559
6.519980
6.557107
6.651846
6.694094
6.723540
6.644164
6.598075
6.635202
6.591674
6.621119
7.131940
6.624960
6.313859
6.966093
7.242042
6.950144
6.799075
7.585149
7.852588
6.827106
6.521260
6.512298
6.486693
6.650566
6.892533
6.832361
6.866928
6.745304
6.573750
6.645444
6.632642
7.541621
7.906358
7.852588
7.839785
7.860269
7.907639
7.830823
7.861549
7.771932
7.071634
6.934647
7.028240
6.983431
7.573627
8.025422
7.869517
7.753014
8.210064
8.377777
8.327847
8.439229
8.499198
7.804021
7.303646
7.133086
7.151010
7.089558
7.174054
7.126685
7.254710
7.331525
7.707919
7.870511
7.633665
7.843626
8.047186
8.107644
7.852874
7.850313
7.961695
7.644193
7.737651
7.721008
7.380461
6.850151
7.147303
7.595391
7.623423
7.805218
7.832104
7.176615
7.117723
6.813023
6.311299
6.290120
6.188980
6.191541
6.176178
6.146732
6.100643
6.182579
6.181299
6.203063
6.119846
6.075038
6.180018
6.031509
5.848433
5.782416
5.677436
5.596780
5.402182
5.361638
5.252817
5.238734
5.224651
5.263059
5.364199
5.357797
5.653535
5.761077
5.585682
5.435893
5.350116
5.015970
4.921231
4.872030
4.695355
4.568610
4.421381
4.461445
4.475528
4.315496
4.229720
4.213077
3.873810
3.993481
4.234169
4.427486
4.501741
4.562585
4.607394
4.585630
4.542101
4.483210
4.565146
4.604834
4.620197
4.689330
4.657324
4.672687
4.767426
4.731578
4.801992
4.681649
4.517776
4.485770
4.278369
4.242522
4.219478
4.141382
4.056886
4.035121
4.045363
4.087612
4.147784
4.216917
4.186191
4.233561
4.293732
4.359025
4.389751
4.425598
4.453764
4.447362
4.458885
4.501133
4.503694
4.455044
4.469127
4.501133
4.554904
4.580509
4.557464
4.383350
4.126019
3.994153
3.914778
3.828329
3.761755
3.741271
3.811685
3.819367
3.697743
3.771997
3.704144
3.806564
3.787360
3.856494
3.915386
3.920507
3.929468
3.943551
3.962755
3.969156
4.011405
3.965316
3.879539
3.875698
3.711826
3.510826
3.445533
3.520537
3.537180
3.442442
3.473168
3.509015
3.346423
3.364346
3.195353
3.215837
3.236321
3.080130
2.978991
2.903455
2.811667
2.736132
2.643954
2.573540
2.515929
2.473680
2.401986
2.311780
2.270812
2.228564
2.190156
2.150469
2.104379
2.065972
2.049329
2.016042
2.103099
2.147908
2.183755
2.201679
2.209360
2.227284
2.246487
2.252889
2.229844
2.251608
2.284895
2.295137
2.268252
2.284895
2.293857
2.315621
2.352748
2.410360
2.364271
2.388595
2.402678
2.373232
2.199118
2.182475
2.204239
2.046768
1.949469
1.914610
1.858279
1.905649
1.908209
1.912050
1.899247
1.901808
1.782744
1.734095
1.714891
1.712331
1.696967
1.743057
1.748178
1.748178
1.749458
1.830114
1.864681
1.858279
1.851878
1.837795
1.862120
1.812190
1.776343
1.755859
1.775063
1.794267
1.790426
1.721292
1.842916
1.798107
1.816031
1.766101
1.773783
1.839075
1.851878
1.850598
1.964540
2.132253
2.097686
2.060559
2.105368
2.070801
2.095126
2.045196
2.091285
2.129693
2.143775
2.118170
2.138654
2.187304
2.165540
2.114330
2.110489
2.107928
2.170661
2.179622
2.164259
2.175782
2.192425
2.269240
2.276922
2.198826
2.175782
2.305087
2.337093
2.267960
2.260278
2.292285
2.379342
2.389584
2.342214
2.349896
2.395985
2.399826
2.430552
2.439514
2.432124
2.456449
2.469251
2.496136
2.531984
2.572952
2.583194
2.594716
2.608799
2.585754
2.546066
2.462850
2.380914
2.423162
2.492296
2.548627
2.562710
2.567831
2.556308
2.578073
2.590875
2.578073
2.589595
2.593436
2.608799
2.615200
2.588315
2.583194
2.602397
2.602397
2.574232
2.602397
2.595996
2.575512
2.555028
2.537105
2.537105
2.523022
2.542226
2.555028
2.570391
2.615200
2.635684
2.668971
2.663850
2.683053
2.699697
2.675372
2.683053
2.631843
2.693295
2.734263
2.707378
2.731703
2.679213
2.711219
2.692015
2.611359
2.662569
2.604958
2.732983
2.699697
2.396277
2.021163
2.072373
2.342506
2.357869
1.877775
1.868521
1.915891
2.207788
2.279482
1.816031
1.718732
1.880044
1.924852
2.129693
1.946617
1.899247
1.776343
1.856999
2.098967
2.147616
1.963260
1.777623
1.597108
1.858279
1.929973
2.088725
2.106648
2.036234
1.993986
2.008069
2.050317
2.064400
2.075922
2.088725
2.092565
2.102807
2.111769
2.111769
2.116890
2.127132
2.142495
2.155298
2.150177
2.152737
2.155298
2.155298
2.157858
2.162979
2.169380
2.174501
2.183463
2.183463
2.180903
2.182183
2.186024
2.189864
2.197546
2.192425
2.186024
2.184743
2.177062
2.174501
2.169380
2.164259
2.156578
2.201387
2.261559
2.265399
2.265399
2.269240
2.288444
2.258998
2.212909
2.189864
2.000387
2.205228
2.243635
2.280762
2.154017
2.274361
1.949177
1.727694
2.059279
2.161699
2.132253
2.019591
2.173221
2.297406
2.366539
2.415189
2.397265
2.431832
2.433112
2.182183
2.168100
2.132253
2.192425
2.237234
2.243635
2.233393
2.183463
2.150177
2.136094
2.235954
1.987585
1.837795
1.666242
1.846757
1.940215
2.045196
2.124572
2.141215
2.145056
2.146336
2.137374
2.091285
2.077202
2.088725
2.104088
2.098967
1.906929
1.901808
2.017030
2.091285
2.139935
2.175782
2.201387
2.200107
2.197546
2.186024
2.194985
2.210349
2.170661
2.160419
2.088725
2.125852
2.054158
2.077202
2.091285
2.146336
2.077202
2.032393
2.029833
2.008069
2.051597
2.055438
2.074642
2.095126
2.120731
2.124572
2.137374
2.142495
2.142495
2.138654
2.145056
2.155298
2.157858
2.186024
2.200107
2.248756
2.291004
2.326851
2.333253
2.299966
2.298686
2.337093
2.404947
2.582902
2.608799
2.528143
2.270812
2.296417
2.437245
2.480773
2.438525
2.439806
2.456449
2.474372
2.480773
2.423162
2.439806
2.352748
2.379634
2.456449
2.473092
2.538385
2.825161
2.775231
2.638244
2.566550
2.567831
2.470531
2.465410
2.421882
2.316901
2.368111
2.516621
2.517901
2.517901
2.523022
2.528143
2.517901
2.521742
2.460289
2.505098
2.525582
2.533264
2.517901
2.576792
2.595996
2.603678
2.571671
2.567831
2.598557
2.507659
2.489735
2.494856
2.397557
2.355309
2.371952
2.442366
2.409079
2.368111
2.466691
2.336105
2.065972
1.827845
2.029833
2.139935
1.922292
1.905649
1.924852
1.933814
2.057999
2.064400
2.087444
2.155298
2.179622
2.230833
2.218030
2.307648
2.244915
2.251317
2.288444
2.283323
2.250036
2.252597
2.266680
2.330692
2.352457
2.365259
2.381902
2.360138
2.356297
2.356297
2.357578
2.339654
2.333253
2.370380
2.390864
2.390864
2.331972
2.346055
2.339654
2.347336
2.349896
2.355017
2.352457
2.365259
2.365259
2.247476
2.078483
2.096406
2.132253
2.358858
2.316609
2.141215
1.937655
2.115610
2.137374
1.419153
1.735176
2.036035
2.096406
1.818591
1.965820
1.891566
1.987585
2.070801
2.083604
2.174501
2.353737
2.427991
2.118170
2.118170
2.154017
2.203947
2.225712
2.257718
2.246196
2.276922
2.448475
2.579353
2.644646
2.377073
1.935386
2.558577
2.246487
1.978915
2.105660
2.237526
2.153029
2.106940
2.182475
1.945628
2.056718
2.037514
2.116890
2.307648
2.466399
2.489735
2.506379
2.658729
2.910938
2.880212
2.726582
2.675372
2.643365
2.581913
2.557589
2.534544
2.465410
2.459009
2.505098
2.523022
2.505098
2.451328
2.402678
2.483334
2.579353
2.639525
2.560149
2.493576
2.466691
2.488455
2.475652
2.462850
2.475652
2.453888
2.482054
2.524302
2.543506
2.548627
2.552468
2.535824
2.523022
2.531984
2.531984
2.528143
2.538385
2.494856
2.435965
2.333544
2.357869
2.382194
2.243927
2.224723
2.228564
2.126144
2.261850
2.336105
2.378353
2.163271
2.347627
2.156870
1.826565
1.872362
1.977343
1.954298
1.940215
1.970941
1.892846
1.839075
1.803228
1.853158
1.915891
1.973502
1.991426
1.997827
2.043916
2.078483
2.102807
2.102807
2.111769
2.130973
2.139935
2.169380
2.188584
2.223151
2.266680
2.314049
2.343495
2.426711
2.436953
2.453888
2.521742
2.441086
2.424443
2.337385
2.304099
2.313061
2.361710
2.324583
2.177354
2.284895
1.971233
1.402510
1.869602
1.964341
1.876203
1.735375
1.575344
1.590707
1.693127
1.722573
1.745617
1.760980
1.709770
1.668802
1.688006
1.739216
1.731534
1.722573
1.784025
1.739216
1.695687
1.792986
1.831394
1.827553
1.839075
1.833954
1.844196
1.846757
1.845477
1.871082
1.877483
1.882604
1.877483
1.892846
1.894126
1.891566
1.887725
1.882604
1.878763
1.881324
1.868521
1.865961
1.858279
1.848037
1.841636
1.830114
1.830114
1.830114
1.827553
1.824993
1.826273
1.823712
1.822432
1.822432
1.822432
1.817311
1.827553
1.837795
1.798107
1.809630
1.823712
1.823712
1.840356
1.831394
1.917171
1.949177
1.931254
1.941496
1.915891
1.880044
2.370380
2.280762
2.006788
1.950457
1.936375
1.953018
1.972222
1.981183
1.961980
2.008069
1.986304
1.817311
1.913330
1.985024
1.942776
1.956859
1.947897
1.827553
1.841636
1.940215
1.964540
1.955578
1.865961
1.775063
1.782744
1.896687
1.972222
1.973502
1.850598
1.926133
1.959419
1.673923
1.364102
1.470164
1.634036
1.660921
1.653240
1.632756
1.608431
1.580266
1.581546
1.721093
1.776144
1.779985
1.794068
1.804309
1.797908
1.749259
1.744138
1.746698
1.756940
1.808150
1.832475
1.832475
1.870883
1.924653
1.923373
1.952819
1.968381
1.973502
1.974782
1.983744
1.982464
1.983744
1.977343
1.974782
1.977343
1.982464
1.981183
1.979903
1.972222
1.977343
1.974782
1.938935
1.921012
1.877483
1.874923
1.901808
1.973502
1.954298
1.918451
1.937655
2.020871
1.795547
1.393548
1.576425
1.668603
1.651960
1.596909
1.596909
1.518813
1.502170
1.604590
1.658361
1.648119
1.651960
1.646839
1.616112
1.731335
1.813271
1.675004
1.691647
1.719813
1.718533
1.721093
1.713412
1.689087
1.782545
1.818392
1.799188
1.794068
1.817112
1.759501
1.732615
1.750539
1.805590
1.808150
1.783826
1.773584
1.765902
1.762061
1.755660
1.718533
1.728775
1.749259
1.769743
1.817112
1.786386
1.806870
1.828634
1.823513
1.849118
1.843997
1.835036
1.838876
1.837596
1.831195
1.836316
1.835036
1.829915
1.828634
1.824794
1.823513
1.823513
1.831195
1.829915
1.833755
1.837596
1.842717
1.842717
1.850399
1.840157
1.838876
1.847838
1.838876
1.804309
1.808150
1.811991
1.843997
1.920812
1.951538
1.976062
1.983744
2.006788
1.936375
1.606070
1.489567
1.677764
1.688006
1.700808
1.668802
1.650878
1.625273
1.599668
1.585586
1.648318
1.712331
1.795547
1.877483
1.885164
1.796827
1.789146
1.818591
1.904368
1.851878
1.885164
1.880044
1.848037
1.812190
1.833954
1.849318
1.848037
1.887725
1.919731
2.029833
2.057999
1.827553
1.654719
1.773783
1.708490
1.823712
1.778904
1.824993
1.780184
1.808349
1.831394
1.869802
1.885164
1.892846
1.909489
1.905649
1.908209
1.910770
1.892846
1.842916
1.921012
1.813470
1.839075
1.868521
1.927413
2.069521
2.124572
2.129693
2.127132
2.150177
2.148896
2.107928
2.011909
1.988865
2.020871
2.006788
2.001667
2.015750
2.014470
2.020871
2.015750
2.042635
1.929973
1.904368
1.915891
1.913330
1.946617
1.878763
1.827553
1.896687
1.854439
1.860840
1.881324
1.900528
1.931254
1.926133
1.932534
1.949177
1.978623
1.970941
1.901808
1.858279
1.904368
1.921012
1.922292
1.906929
1.864681
1.822432
1.817311
1.808349
1.764821
1.764821
1.717452
1.702089
1.682885
1.759700
1.781464
1.764821
1.775063
1.711050
1.775063
1.743057
1.316733
1.343419
1.447119
1.440718
1.412552
1.369024
1.384387
1.406151
1.431756
1.440718
1.463763
1.369024
1.456081
1.484247
1.506011
1.522654
1.520094
1.563622
1.602030
1.646839
1.704450
1.773584
1.813271
1.832475
1.811991
1.823513
1.817112
1.824794
1.829915
1.810711
1.799188
1.781265
1.772303
1.762061
1.753099
1.746698
1.739017
1.731335
1.733896
1.719813
1.703170
1.703170
1.700609
1.701889
1.704450
1.712131
1.667323
1.685246
1.680125
1.654520
1.607151
1.683966
1.634036
0.924777
1.367645
1.494390
1.484247
1.467603
1.462482
1.436877
1.447119
1.477845
1.502170
1.544418
1.554660
1.600749
1.614832
1.575144
1.596909
1.591788
1.631476
1.576425
1.594348
1.616112
1.645558
1.671163
1.673724
1.636597
1.619953
1.666042
1.666042
1.664762
1.677565
1.701889
1.659641
1.582826
1.232037
1.344699
1.361342
1.340858
1.365183
1.370304
1.319094
1.386947
1.417673
1.424075
1.445839
1.456081
1.467603
1.452240
1.456081
1.479126
1.506011
1.523934
1.538017
1.552100
1.589227
1.602030
1.610991
1.607151
1.621234
1.619953
1.617393
1.608431
1.595628
1.612272
1.631476
1.644278
1.642998
1.640437
1.641718
1.649399
1.645558
1.644278
1.646839
1.644278
1.650679
1.660921
1.675004
1.692928
1.707010
1.715972
1.721093
1.722373
1.726214
1.695488
1.732615
1.728775
1.739017
1.705730
1.726214
1.747978
1.482966
1.260203
1.383107
1.308852
1.347260
1.345979
1.366463
1.376705
1.435597
1.491928
1.561062
1.602030
1.605870
1.642998
1.627635
1.635316
1.594348
1.623794
1.541858
1.585387
1.600749
1.593068
1.570023
1.572584
1.571304
1.576425
1.575144
1.593068
1.599469
1.589227
1.617393
1.632756
1.631476
1.635316
1.636597
1.637877
1.646839
1.641718
1.640437
1.640437
1.640437
1.640437
1.637877
1.640437
1.645558
1.639157
1.637877
1.636597
1.635316
1.635316
1.635316
1.618673
1.603310
1.596909
1.616112
1.614832
1.575144
1.587947
1.600749
1.587947
1.557221
1.561062
1.567463
1.564902
1.561062
1.563622
1.573864
1.577705
1.581546
1.581546
1.584106
1.585387
1.584106
1.585387
1.584106
1.582826
1.581546
1.581546
1.578985
1.581546
1.572584
1.582826
1.578985
1.602030
1.585387
1.590508
1.581546
1.571304
1.587947
1.590508
1.589227
1.541858
1.570023
1.577705
1.415113
1.132177
1.225636
1.313973
1.334457
1.354941
1.344699
1.333177
1.383107
1.425355
1.426635
1.443279
1.427915
1.450960
1.441998
1.485527
1.568743
1.617393
1.667323
1.683966
1.765902
1.854239
1.910570
1.941296
1.931054
1.950258
1.932534
2.013190
1.935094
1.923572
1.865961
1.992706
1.941496
1.487006
1.579184
1.707210
1.627834
1.655999
1.698248
1.690566
1.698248
1.679044
1.700808
1.748178
1.662401
1.767381
1.769942
1.728974
1.757139
1.787865
1.735375
1.754579
1.784025
1.749458
1.696967
1.707210
1.776343
1.771222
1.792986
1.712331
1.791706
1.758420
1.408911
1.249961
1.402310
1.383107
1.411272
1.367744
1.458642
1.491928
1.538017
1.555941
1.605870
1.618673
1.610991
1.645558
1.692928
1.683966
1.667323
1.666042
1.715972
1.698049
1.672444
1.623794
1.600749
1.582826
1.646839
1.666042
1.667323
1.666042
1.650679
1.639157
1.639157
1.619953
1.587947
1.576425
1.572584
1.559781
1.563622
1.553380
1.543138
1.540578
1.550820
1.552100
1.553380
1.553380
1.561062
1.566183
1.564902
1.559781
1.567463
1.572584
1.578985
1.591788
1.576425
1.602030
1.595628
1.590508
1.581546
1.589227
1.581546
1.589227
1.465043
1.634036
1.636597
1.486807
1.018235
1.253801
1.257642
1.264043
1.266604
1.280686
1.347260
1.434317
1.546979
1.692928
1.751819
1.804309
1.872163
1.842717
1.778705
1.773584
1.774864
1.777424
1.782545
1.717252
1.783826
1.777424
1.792787
1.785106
1.704450
1.707010
1.721093
1.753099
1.751819
1.739017
1.646839
1.715972
1.731335
1.376705
1.260203
1.466323
1.449680
1.458642
1.445839
1.461202
1.435597
1.443279
1.466323
1.445839
1.447119
1.449680
1.443279
1.440718
1.409992
1.418954
1.422794
1.468884
1.495769
1.481686
1.486807
1.506011
1.499610
1.235878
1.033598
1.123216
1.123216
1.178266
1.173145
1.192349
1.261483
1.367744
1.499610
1.675004
1.779985
1.836316
1.932335
1.932335
1.988666
1.972222
1.981183
1.987585
1.914610
1.871082
1.813470
1.800668
1.686725
1.752018
1.731534
1.361542
1.216674
1.502170
1.558501
1.595628
1.498329
1.546979
1.549539
1.545699
1.507291
1.535457
1.520094
1.523934
1.518813
1.497049
1.538017
1.552100
1.567463
1.566183
1.566183
1.575144
1.581546
1.582826
1.577705
1.570023
1.548259
1.541858
1.538017
1.536737
1.545699
1.539297
1.545699
1.543138
1.543138
1.544418
1.549539
1.554660
1.550820
1.552100
1.546979
1.550820
1.550820
1.552100
1.563622
1.554660
1.580266
1.607151
1.577705
1.573864
1.544418
1.577705
1.603310
1.471444
1.247400
1.328056
1.306292
1.306292
1.310132
1.316534
1.301171
1.321655
1.344699
1.403591
1.408712
1.429196
1.401030
1.383107
1.482966
1.529055
1.593068
1.655800
1.730055
1.718533
1.747978
1.815832
1.810711
1.814552
1.819673
1.794068
1.758220
1.782545
1.772303
1.735176
1.695488
1.695488
1.639157
1.654520
1.669883
1.321655
1.220515
1.340858
1.408712
1.431756
1.413833
1.416393
1.427915
1.413833
1.427915
1.459922
1.472724
1.479126
1.468884
1.471444
1.489368
1.482966
1.431756
1.463763
1.476565
1.488087
1.508571
1.549539
1.580266
1.600749
1.623794
1.630195
1.641718
1.641718
1.653240
1.659641
1.655800
1.642998
1.631476
1.610991
1.593068
1.589227
1.557221
1.525215
1.526495
1.523934
1.562342
1.567463
1.582826
1.566183
1.540578
1.541858
1.523934
1.517533
1.472724
1.600749
1.600749
1.285807
1.046400
1.262763
1.260203
1.287088
1.312693
1.301171
1.307572
1.305011
1.317814
1.339578
1.349820
1.349820
1.361342
1.375425
1.379266
1.365183
1.356221
1.395909
1.393349
1.389508
1.371584
1.409992
1.425355
1.412552
1.431756
1.467603
1.499610
1.486807
1.468884
1.529055
1.541858
1.555941
1.545699
1.546979
1.555941
1.545699
1.561062
1.563622
1.570023
1.568743
1.540578
1.546979
1.484247
1.479126
1.559781
1.553380
1.520094
1.535457
1.558501
1.577705
1.398470
1.192349
1.223075
1.247400
1.261483
1.271725
1.281967
1.228196
1.281967
1.306292
1.333177
1.306292
1.319094
1.319094
1.305011
1.288368
1.287088
1.271725
1.258922
1.284527
1.316534
1.366463
1.370304
1.343419
1.324215
1.353661
1.367744
1.363903
1.374145
1.302451
1.388228
1.374145
0.872286
1.110314
1.068066
1.059104
1.103913
1.106473
1.135919
1.161524
1.148722
1.182008
1.208893
1.226817
1.225537
1.225537
1.216575
1.208893
1.210174
1.240900
1.258823
1.283148
1.271626
1.263944
1.271626
1.251142
1.239619
1.269065
1.176887
1.251142
1.293390
1.124397
1.038620
1.146161
1.192250
1.199932
1.188409
1.202492
1.190970
1.235779
1.258823
1.299791
1.322836
1.334358
1.298511
1.294670
1.295951
1.320275
1.359963
1.374046
1.395810
1.404772
1.400931
1.408613
1.427817
1.425256
1.418855
1.420135
1.423976
1.431657
1.430377
1.445740
1.444460
1.453421
1.471345
1.465043
1.426635
1.450960
1.458642
1.463763
1.457361
1.417673
1.366463
1.374145
1.376705
1.370304
1.369024
1.377986
1.358782
1.384387
1.402310
1.408712
1.380546
1.388228
1.418954
1.421514
1.403591
1.406151
1.424075
1.425355
1.417673
1.357502
1.358782
1.372865
1.406151
1.091209
1.101451
1.070725
1.105292
1.112974
1.107853
1.133458
1.184668
1.214113
1.284527
1.281967
1.412552
1.489368
1.517533
1.536737
1.545699
1.541858
1.530336
1.495769
1.504731
1.499610
1.491928
1.467603
1.448400
1.448400
1.383107
1.420234
1.418954
1.170585
1.047681
1.078407
1.051521
1.070725
1.088649
1.087368
1.046400
1.084808
1.093770
1.107853
1.112974
1.119375
1.128337
1.098891
1.115534
1.128337
1.130897
1.129617
1.152661
1.106572
1.123216
1.137298
1.143700
1.146260
1.150101
1.155222
1.156502
1.144980
1.150101
1.194910
1.188508
1.143700
1.151381
1.178266
1.182107
1.206432
1.173145
1.197470
1.205152
1.025916
0.937579
1.043741
1.001493
1.041180
1.009174
1.037340
1.085989
1.121836
1.141040
1.182008
1.192250
1.219135
1.251142
1.265224
1.289549
1.313874
1.306193
1.257543
1.270346
1.274186
1.278027
1.288269
1.308753
1.317715
1.316435
1.283148
1.281868
1.293390
1.311314
1.343320
1.361243
1.351001
1.349721
1.338199
1.307473
1.345880
1.352282
1.338199
1.347161
1.336919
1.327957
1.265224
1.096231
1.166645
1.198651
1.217855
1.242180
1.229378
1.244740
1.280588
1.311314
1.389409
1.440619
1.491829
1.504731
1.503450
1.480406
1.463763
1.456081
1.375425
1.340858
1.326776
1.324215
1.358782
1.353661
1.349820
1.333177
1.301171
1.340858
1.331897
1.337018
1.228196
1.316534
1.333177
1.063044
1.064324
1.114254
1.043840
1.089929
1.095050
1.111693
1.134738
1.179547
1.212833
1.239718
1.264043
1.293489
1.307572
1.312693
1.306292
1.322935
1.333177
1.330616
1.328056
1.330616
1.330616
1.320374
1.307572
1.306292
1.311413
1.321655
1.334457
1.347260
1.312693
1.262763
1.303731
1.324215
1.306292
1.316534
1.179547
1.344699
1.307572
0.879968
1.184569
1.137199
1.112875
1.096231
1.097512
1.139760
1.147441
1.178167
1.174327
1.188409
1.194811
1.190970
1.198651
1.197371
1.188409
1.180728
1.193530
1.197371
1.179448
1.179448
1.176887
1.176887
1.176887
1.183288
1.188409
1.194811
1.199932
1.239619
1.130798
1.032219
1.025817
1.055263
1.030938
1.019416
1.050142
1.068066
1.070626
1.074467
1.074467
1.075747
1.074467
1.077027
1.073187
1.077027
1.075747
1.084709
1.079588
1.084709
1.085989
1.087270
1.082149
1.082149
1.079588
1.080868
1.052703
1.053983
1.064225
1.087270
1.055263
1.057824
0.977168
0.940041
0.945162
0.959244
0.975888
0.972047
0.978448
0.983569
0.988690
0.992531
0.997652
1.001493
1.007894
1.006614
1.010454
1.015575
1.027098
1.027098
1.029658
1.029658
1.029658
1.029658
1.034779
1.041180
1.033499
1.036059
1.039900
1.045021
1.050142
1.052703
1.060384
1.083429
1.088550
1.065505
1.057824
1.057824
1.060384
1.045021
1.046301
1.045021
1.045021
1.047582
1.043741
1.048862
1.043741
1.032219
0.973327
0.901633
0.914436
