1539266940.000000
4.000000
31.01
31.01
31.01
31.01
31.01
31.01
31.01
31.01
31.01
31.01
31.01
31.01
30.97
30.97
30.97
30.97
30.91
30.91
30.91
30.91
30.93
30.93
30.93
30.93
30.97
30.97
30.97
30.97
30.95
30.95
30.95
30.95
30.93
30.93
30.93
30.93
30.77
30.77
30.77
30.77
30.79
30.79
30.79
30.79
30.77
30.77
30.77
30.77
30.75
30.75
30.75
30.75
30.69
30.69
30.69
30.69
30.73
30.73
30.73
30.73
30.63
30.63
30.63
30.63
30.63
30.63
30.63
30.63
30.55
30.55
30.55
30.55
30.53
30.53
30.53
30.53
30.53
30.53
30.53
30.53
30.51
30.51
30.51
30.51
30.45
30.45
30.45
30.45
30.45
30.45
30.45
30.45
30.45
30.45
30.45
30.45
30.45
30.45
30.45
30.45
30.43
30.43
30.43
30.43
30.41
30.41
30.41
30.41
30.39
30.39
30.39
30.39
30.37
30.37
30.37
30.37
30.33
30.33
30.33
30.33
30.33
30.33
30.33
30.33
30.29
30.29
30.29
30.29
30.29
30.29
30.29
30.29
30.21
30.21
30.21
30.21
30.23
30.23
30.23
30.23
30.21
30.21
30.21
30.21
30.21
30.21
30.21
30.21
30.23
30.23
30.23
30.23
30.23
30.23
30.23
30.23
30.19
30.19
30.19
30.19
30.17
30.17
30.17
30.17
30.13
30.13
30.13
30.13
30.13
30.13
30.13
30.13
30.15
30.15
30.15
30.15
30.13
30.13
30.13
30.13
30.09
30.09
30.09
30.09
30.07
30.07
30.07
30.07
30.17
30.17
30.17
30.17
30.21
30.21
30.21
30.21
30.13
30.13
30.13
30.13
30.11
30.11
30.11
30.11
30.05
30.05
30.05
30.05
29.93
29.93
29.93
29.93
29.89
29.89
29.89
29.89
29.85
29.85
29.85
29.85
29.85
29.85
29.85
29.85
29.85
29.85
29.85
29.85
29.89
29.89
29.89
29.89
29.83
29.83
29.83
29.83
29.89
29.89
29.89
29.89
29.85
29.85
29.85
29.85
29.85
29.85
29.85
29.85
29.85
29.85
29.85
29.85
29.77
29.77
29.77
29.77
29.73
29.73
29.73
29.73
29.61
29.61
29.61
29.61
29.57
29.57
29.57
29.57
29.51
29.51
29.51
29.51
29.55
29.55
29.55
29.55
29.49
29.49
29.49
29.49
29.53
29.53
29.53
29.53
29.51
29.51
29.51
29.51
29.55
29.55
29.55
29.55
29.53
29.53
29.53
29.53
29.53
29.53
29.53
29.53
29.59
29.59
29.59
29.59
29.57
29.57
29.57
29.57
29.63
29.63
29.63
29.63
29.61
29.61
29.61
29.61
29.67
29.67
29.67
29.67
29.63
29.63
29.63
29.63
29.71
29.71
29.71
29.71
29.59
29.59
29.59
29.59
29.59
29.59
29.59
29.59
29.55
29.55
29.55
29.55
29.49
29.49
29.49
29.49
29.55
29.55
29.55
29.55
29.53
29.53
29.53
29.53
29.51
29.51
29.51
29.51
29.45
29.45
29.45
29.45
29.45
29.45
29.45
29.45
29.41
29.41
29.41
29.41
29.37
29.37
29.37
29.37
29.41
29.41
29.41
29.41
29.45
29.45
29.45
29.45
29.47
29.47
29.47
29.47
29.35
29.35
29.35
29.35
29.45
29.45
29.45
29.45
29.39
29.39
29.39
29.39
29.39
29.39
29.39
29.39
29.37
29.37
29.37
29.37
29.27
29.27
29.27
29.27
29.39
29.39
29.39
29.39
29.29
29.29
29.29
29.29
29.17
29.17
29.17
29.17
29.19
29.19
29.19
29.19
29.27
29.27
29.27
29.27
29.25
29.25
29.25
29.25
29.11
29.11
29.11
29.11
29.23
29.23
29.23
29.23
29.17
29.17
29.17
29.17
29.17
29.17
29.17
29.17
29.15
29.15
29.15
29.15
29.15
29.15
29.15
29.15
29.17
29.17
29.17
29.17
29.13
29.13
29.13
29.13
29.15
29.15
29.15
29.15
29.13
29.13
29.13
29.13
29.09
29.09
29.09
29.09
29.01
29.01
29.01
29.01
29.01
29.01
29.01
29.01
29.05
29.05
29.05
29.05
29.03
29.03
29.03
29.03
28.91
28.91
28.91
28.91
28.77
28.77
28.77
28.77
28.95
28.95
28.95
28.95
28.99
28.99
28.99
28.99
28.97
28.97
28.97
28.97
28.97
28.97
28.97
28.97
28.95
28.95
28.95
28.95
28.95
28.95
28.95
28.95
28.79
28.79
28.79
28.79
28.93
28.93
28.93
28.93
28.91
28.91
28.91
28.91
28.87
28.87
28.87
28.87
28.87
28.87
28.87
28.87
28.85
28.85
28.85
28.85
28.87
28.87
28.87
28.87
28.91
28.91
28.91
28.91
28.91
28.91
28.91
28.91
28.89
28.89
28.89
28.89
28.69
28.69
28.69
28.69
28.87
28.87
28.87
28.87
28.93
28.93
28.93
28.93
28.73
28.73
28.73
28.73
28.85
28.85
28.85
28.85
28.91
28.91
28.91
28.91
28.73
28.73
28.73
28.73
28.75
28.75
28.75
28.75
28.87
28.87
28.87
28.87
28.73
28.73
28.73
28.73
28.73
28.73
28.73
28.73
28.81
28.81
28.81
28.81
28.83
28.83
28.83
28.83
28.67
28.67
28.67
28.67
28.77
28.77
28.77
28.77
28.83
28.83
28.83
28.83
28.73
28.73
28.73
28.73
28.85
28.85
28.85
28.85
28.81
28.81
28.81
28.81
28.65
28.65
28.65
28.65
28.77
28.77
28.77
28.77
28.83
28.83
28.83
28.83
28.69
28.69
28.69
28.69
28.81
28.81
28.81
28.81
28.83
28.83
28.83
28.83
28.71
28.71
28.71
28.71
28.77
28.77
28.77
28.77
28.79
28.79
28.79
28.79
28.71
28.71
28.71
28.71
28.75
28.75
28.75
28.75
28.75
28.75
28.75
28.75
28.73
28.73
28.73
28.73
28.79
28.79
28.79
28.79
28.77
28.77
28.77
28.77
28.77
28.77
28.77
28.77
28.69
28.69
28.69
28.69
28.75
28.75
28.75
28.75
28.75
28.75
28.75
28.75
28.69
28.69
28.69
28.69
28.73
28.73
28.73
28.73
28.73
28.73
28.73
28.73
28.69
28.69
28.69
28.69
28.67
28.67
28.67
28.67
28.69
28.69
28.69
28.69
28.65
28.65
28.65
28.65
28.59
28.59
28.59
28.59
28.67
28.67
28.67
28.67
28.71
28.71
28.71
28.71
28.51
28.51
28.51
28.51
28.65
28.65
28.65
28.65
28.61
28.61
28.61
28.61
28.59
28.59
28.59
28.59
28.63
28.63
28.63
28.63
28.61
28.61
28.61
28.61
28.51
28.51
28.51
28.51
28.63
28.63
28.63
28.63
28.65
28.65
28.65
28.65
28.43
28.43
28.43
28.43
28.57
28.57
28.57
28.57
28.57
28.57
28.57
28.57
28.53
28.53
28.53
28.53
28.53
28.53
28.53
28.53
28.57
28.57
28.57
28.57
28.45
28.45
28.45
28.45
28.55
28.55
28.55
28.55
28.55
28.55
28.55
28.55
28.47
28.47
28.47
28.47
28.53
28.53
28.53
28.53
28.55
28.55
28.55
28.55
28.49
28.49
28.49
28.49
28.53
28.53
28.53
28.53
28.59
28.59
28.59
28.59
28.57
28.57
28.57
28.57
28.59
28.59
28.59
28.59
28.53
28.53
28.53
28.53
28.49
28.49
28.49
28.49
28.45
28.45
28.45
28.45
28.49
28.49
28.49
28.49
28.53
28.53
28.53
28.53
28.55
28.55
28.55
28.55
28.55
28.55
28.55
28.55
28.53
28.53
28.53
28.53
28.57
28.57
28.57
28.57
28.53
28.53
28.53
28.53
28.51
28.51
28.51
28.51
28.55
28.55
28.55
28.55
28.43
28.43
28.43
28.43
28.45
28.45
28.45
28.45
28.51
28.51
28.51
28.51
28.45
28.45
28.45
28.45
28.41
28.41
28.41
28.41
28.51
28.51
28.51
28.51
28.41
28.41
28.41
28.41
28.47
28.47
28.47
28.47
28.49
28.49
28.49
28.49
28.35
28.35
28.35
28.35
28.43
28.43
28.43
28.43
28.47
28.47
28.47
28.47
28.33
28.33
28.33
28.33
28.43
28.43
28.43
28.43
28.47
28.47
28.47
28.47
28.37
28.37
28.37
28.37
28.45
28.45
28.45
28.45
28.47
28.47
28.47
28.47
28.43
28.43
28.43
28.43
28.47
28.47
28.47
28.47
28.43
28.43
28.43
28.43
28.43
28.43
28.43
28.43
28.45
28.45
28.45
28.45
28.43
28.43
28.43
28.43
28.43
28.43
28.43
28.43
28.43
28.43
28.43
28.43
28.33
28.33
28.33
28.33
28.39
28.39
28.39
28.39
28.39
28.39
28.39
28.39
28.43
28.43
28.43
28.43
28.39
28.39
28.39
28.39
28.37
28.37
28.37
28.37
28.41
28.41
28.41
28.41
28.37
28.37
28.37
28.37
28.39
28.39
28.39
28.39
28.41
28.41
28.41
28.41
28.37
28.37
28.37
28.37
28.35
28.35
28.35
28.35
28.33
28.33
28.33
28.33
28.33
28.33
28.33
28.33
28.31
28.31
28.31
28.31
28.25
28.25
28.25
28.25
28.19
28.19
28.19
28.19
28.35
28.35
28.35
28.35
28.35
28.35
28.35
28.35
28.29
28.29
28.29
28.29
28.35
28.35
28.35
28.35
28.33
28.33
28.33
28.33
28.37
28.37
28.37
28.37
28.35
28.35
28.35
28.35
28.31
28.31
28.31
28.31
28.27
28.27
28.27
28.27
28.29
28.29
28.29
28.29
28.25
28.25
28.25
28.25
28.35
28.35
28.35
28.35
28.31
28.31
28.31
28.31
28.33
28.33
28.33
28.33
28.29
28.29
28.29
28.29
28.35
28.35
28.35
28.35
28.39
28.39
28.39
28.39
28.37
28.37
28.37
28.37
28.33
28.33
28.33
28.33
28.33
28.33
28.33
28.33
28.31
28.31
28.31
28.31
28.29
28.29
28.29
28.29
28.27
28.27
28.27
28.27
28.31
28.31
28.31
28.31
28.27
28.27
28.27
28.27
28.23
28.23
28.23
28.23
28.29
28.29
28.29
28.29
28.31
28.31
28.31
28.31
28.13
28.13
28.13
28.13
28.21
28.21
28.21
28.21
28.21
28.21
28.21
28.21
28.19
28.19
28.19
28.19
28.23
28.23
28.23
28.23
28.23
28.23
28.23
28.23
28.21
28.21
28.21
28.21
28.21
28.21
28.21
28.21
28.21
28.21
28.21
28.21
28.19
28.19
28.19
28.19
28.13
28.13
28.13
28.13
28.19
28.19
28.19
28.19
28.21
28.21
28.21
28.21
28.17
28.17
28.17
28.17
28.09
28.09
28.09
28.09
28.19
28.19
28.19
28.19
28.19
28.19
28.19
28.19
28.15
28.15
28.15
28.15
28.11
28.11
28.11
28.11
28.19
28.19
28.19
28.19
28.17
28.17
28.17
28.17
28.19
28.19
28.19
28.19
28.19
28.19
28.19
28.19
28.13
28.13
28.13
28.13
28.19
28.19
28.19
28.19
28.17
28.17
28.17
28.17
28.15
28.15
28.15
28.15
28.05
28.05
28.05
28.05
28.19
28.19
28.19
28.19
28.17
28.17
28.17
28.17
28.17
28.17
28.17
28.17
28.13
28.13
28.13
28.13
28.15
28.15
28.15
28.15
28.21
28.21
28.21
28.21
28.17
28.17
28.17
28.17
28.11
28.11
28.11
28.11
28.19
28.19
28.19
28.19
28.17
28.17
28.17
28.17
28.15
28.15
28.15
28.15
28.25
28.25
28.25
28.25
28.25
28.25
28.25
28.25
28.19
28.19
28.19
28.19
28.17
28.17
28.17
28.17
28.15
28.15
28.15
28.15
28.15
28.15
28.15
28.15
28.19
28.19
28.19
28.19
28.17
28.17
28.17
28.17
28.13
28.13
28.13
28.13
28.03
28.03
28.03
28.03
28.19
28.19
28.19
28.19
28.19
28.19
28.19
28.19
28.19
28.19
28.19
28.19
28.15
28.15
28.15
28.15
28.15
28.15
28.15
28.15
28.19
28.19
28.19
28.19
28.19
28.19
28.19
28.19
28.19
28.19
28.19
28.19
28.15
28.15
28.15
28.15
28.15
28.15
28.15
28.15
28.09
28.09
28.09
28.09
28.17
28.17
28.17
28.17
28.21
28.21
28.21
28.21
28.25
28.25
28.25
28.25
28.23
28.23
28.23
28.23
28.21
28.21
28.21
28.21
28.21
28.21
28.21
28.21
28.19
28.19
28.19
28.19
28.19
28.19
28.19
28.19
28.15
28.15
28.15
28.15
28.15
28.15
28.15
28.15
28.09
28.09
28.09
28.09
28.09
28.09
28.09
28.09
28.17
28.17
28.17
28.17
28.13
28.13
28.13
28.13
28.15
28.15
28.15
28.15
28.11
28.11
28.11
28.11
28.15
28.15
28.15
28.15
28.13
28.13
28.13
28.13
28.11
28.11
28.11
28.11
28.07
28.07
28.07
28.07
28.09
28.09
28.09
28.09
28.09
28.09
28.09
28.09
28.05
28.05
28.05
28.05
28.05
28.05
28.05
28.05
28.01
28.01
28.01
28.01
28.05
28.05
28.05
28.05
28.05
28.05
28.05
28.05
28.05
28.05
28.05
28.05
28.01
28.01
28.01
28.01
28.05
28.05
28.05
28.05
28.01
28.01
28.01
28.01
27.95
27.95
27.95
27.95
28.03
28.03
28.03
28.03
28.01
28.01
28.01
28.01
28.01
28.01
28.01
28.01
27.95
27.95
27.95
27.95
28.03
28.03
28.03
28.03
28.01
28.01
28.01
28.01
27.95
27.95
27.95
27.95
28.01
28.01
28.01
28.01
27.99
27.99
27.99
27.99
27.99
27.99
27.99
27.99
27.95
27.95
27.95
27.95
28.01
28.01
28.01
28.01
27.99
27.99
27.99
27.99
27.93
27.93
27.93
27.93
27.93
27.93
27.93
27.93
27.91
27.91
27.91
27.91
27.87
27.87
27.87
27.87
27.97
27.97
27.97
27.97
27.97
27.97
27.97
27.97
27.97
27.97
27.97
27.97
27.91
27.91
27.91
27.91
27.91
27.91
27.91
27.91
27.95
27.95
27.95
27.95
27.97
27.97
27.97
27.97
27.97
27.97
27.97
27.97
27.93
27.93
27.93
27.93
27.93
27.93
27.93
27.93
27.91
27.91
27.91
27.91
27.91
27.91
27.91
27.91
27.83
27.83
27.83
27.83
27.91
27.91
27.91
27.91
27.89
27.89
27.89
27.89
27.89
27.89
27.89
27.89
27.93
27.93
27.93
27.93
27.87
27.87
27.87
27.87
27.87
27.87
27.87
27.87
27.87
27.87
27.87
27.87
27.85
27.85
27.85
27.85
27.85
27.85
27.85
27.85
27.81
27.81
27.81
27.81
27.83
27.83
27.83
27.83
27.83
27.83
27.83
27.83
27.85
27.85
27.85
27.85
27.85
27.85
27.85
27.85
27.85
27.85
27.85
27.85
27.85
27.85
27.85
27.85
27.87
27.87
27.87
27.87
27.87
27.87
27.87
27.87
27.81
27.81
27.81
27.81
27.83
27.83
27.83
27.83
27.79
27.79
27.79
27.79
27.79
27.79
27.79
27.79
27.83
27.83
27.83
27.83
27.81
27.81
27.81
27.81
27.85
27.85
27.85
27.85
27.83
27.83
27.83
27.83
27.81
27.81
27.81
27.81
27.83
27.83
27.83
27.83
27.77
27.77
27.77
27.77
27.77
27.77
27.77
27.77
27.81
27.81
27.81
27.81
27.77
27.77
27.77
27.77
27.77
27.77
27.77
27.77
27.81
27.81
27.81
27.81
27.77
27.77
27.77
27.77
27.77
27.77
27.77
27.77
27.75
27.75
27.75
27.75
27.77
27.77
27.77
27.77
27.77
27.77
27.77
27.77
27.77
27.77
27.77
27.77
27.75
27.75
27.75
27.75
27.73
27.73
27.73
27.73
27.69
27.69
27.69
27.69
27.71
27.71
27.71
27.71
27.71
27.71
27.71
27.71
27.71
27.71
27.71
27.71
27.71
27.71
27.71
27.71
27.71
27.71
27.71
27.71
27.67
27.67
27.67
27.67
27.67
27.67
27.67
27.67
27.71
27.71
27.71
27.71
27.67
27.67
27.67
27.67
27.77
27.77
27.77
27.77
27.73
27.73
27.73
27.73
27.71
27.71
27.71
27.71
27.71
27.71
27.71
27.71
27.71
27.71
27.71
27.71
27.69
27.69
27.69
27.69
27.65
27.65
27.65
27.65
27.67
27.67
27.67
27.67
27.69
27.69
27.69
27.69
27.65
27.65
27.65
27.65
27.69
27.69
27.69
27.69
27.65
27.65
27.65
27.65
27.63
27.63
27.63
27.63
27.67
27.67
27.67
27.67
27.65
27.65
27.65
27.65
27.67
27.67
27.67
27.67
27.65
27.65
27.65
27.65
27.65
27.65
27.65
27.65
27.69
27.69
27.69
27.69
27.65
27.65
27.65
27.65
27.65
27.65
27.65
27.65
27.63
27.63
27.63
27.63
27.65
27.65
27.65
27.65
27.65
27.65
27.65
27.65
27.67
27.67
27.67
27.67
27.63
27.63
27.63
27.63
27.65
27.65
27.65
27.65
27.61
27.61
27.61
27.61
27.61
27.61
27.61
27.61
27.65
27.65
27.65
27.65
27.61
27.61
27.61
27.61
27.59
27.59
27.59
27.59
27.59
27.59
27.59
27.59
27.55
27.55
27.55
27.55
27.53
27.53
27.53
27.53
27.53
27.53
27.53
27.53
27.51
27.51
27.51
27.51
27.61
27.61
27.61
27.61
27.55
27.55
27.55
27.55
27.53
27.53
27.53
27.53
27.59
27.59
27.59
27.59
27.55
27.55
27.55
27.55
27.55
27.55
27.55
27.55
27.57
27.57
27.57
27.57
27.59
27.59
27.59
27.59
27.57
27.57
27.57
27.57
27.59
27.59
27.59
27.59
27.57
27.57
27.57
27.57
27.55
27.55
27.55
27.55
27.55
27.55
27.55
27.55
27.57
27.57
27.57
27.57
27.57
27.57
27.57
27.57
27.59
27.59
27.59
27.59
27.55
27.55
27.55
27.55
27.55
27.55
27.55
27.55
27.55
27.55
27.55
27.55
27.61
27.61
27.61
27.61
27.55
27.55
27.55
27.55
27.59
27.59
27.59
27.59
27.49
27.49
27.49
27.49
27.51
27.51
27.51
27.51
27.53
27.53
27.53
27.53
27.51
27.51
27.51
27.51
27.55
27.55
27.55
27.55
27.53
27.53
27.53
27.53
27.55
27.55
27.55
27.55
27.53
27.53
27.53
27.53
27.55
27.55
27.55
27.55
27.55
27.55
27.55
27.55
27.55
27.55
27.55
27.55
27.57
27.57
27.57
27.57
27.55
27.55
27.55
27.55
27.59
27.59
27.59
27.59
27.55
27.55
27.55
27.55
27.53
27.53
27.53
27.53
27.51
27.51
27.51
27.51
27.51
27.51
27.51
27.51
27.53
27.53
27.53
27.53
27.53
27.53
27.53
27.53
27.53
27.53
27.53
27.53
27.53
27.53
27.53
27.53
27.53
27.53
27.53
27.53
27.51
27.51
27.51
27.51
27.53
27.53
27.53
27.53
27.53
27.53
27.53
27.53
27.47
27.47
27.47
27.47
27.47
27.47
27.47
27.47
27.47
27.47
27.47
27.47
27.43
27.43
27.43
27.43
27.45
27.45
27.45
27.45
27.47
27.47
27.47
27.47
27.47
27.47
27.47
27.47
27.45
27.45
27.45
27.45
27.49
27.49
27.49
27.49
27.47
27.47
27.47
27.47
27.47
27.47
27.47
27.47
27.47
27.47
27.47
27.47
27.45
27.45
27.45
27.45
27.47
27.47
27.47
27.47
27.47
27.47
27.47
27.47
27.47
27.47
27.47
27.47
27.51
27.51
27.51
27.51
27.49
27.49
27.49
27.49
27.51
27.51
27.51
27.51
27.49
27.49
27.49
27.49
27.55
27.55
27.55
27.55
27.51
27.51
27.51
27.51
27.53
27.53
27.53
27.53
27.49
27.49
27.49
27.49
27.51
27.51
27.51
27.51
27.51
27.51
27.51
27.51
27.49
27.49
27.49
27.49
27.47
27.47
27.47
27.47
27.47
27.47
27.47
27.47
27.47
27.47
27.47
27.47
27.47
27.47
27.47
27.47
27.51
27.51
27.51
27.51
27.53
27.53
27.53
27.53
27.49
27.49
27.49
27.49
27.51
27.51
27.51
27.51
27.47
27.47
27.47
27.47
27.51
27.51
27.51
27.51
27.47
27.47
27.47
27.47
27.45
27.45
27.45
27.45
27.45
27.45
27.45
27.45
27.43
27.43
27.43
27.43
27.49
27.49
27.49
27.49
27.45
27.45
27.45
27.45
27.47
27.47
27.47
27.47
27.49
27.49
27.49
27.49
27.45
27.45
27.45
27.45
27.43
27.43
27.43
27.43
27.49
27.49
27.49
27.49
27.47
27.47
27.47
27.47
27.45
27.45
27.45
27.45
27.45
27.45
27.45
27.45
27.45
27.45
27.45
27.45
27.43
27.43
27.43
27.43
27.45
27.45
27.45
27.45
27.47
27.47
27.47
27.47
27.43
27.43
27.43
27.43
27.47
27.47
27.47
27.47
27.53
27.53
27.53
27.53
27.53
27.53
27.53
27.53
27.51
27.51
27.51
27.51
27.51
27.51
27.51
27.51
27.53
27.53
27.53
27.53
27.53
27.53
27.53
27.53
27.53
27.53
27.53
27.53
27.53
27.53
27.53
27.53
27.51
27.51
27.51
27.51
27.47
27.47
27.47
27.47
27.49
27.49
27.49
27.49
27.49
27.49
27.49
27.49
27.45
27.45
27.45
27.45
27.49
27.49
27.49
27.49
27.47
27.47
27.47
27.47
27.47
27.47
27.47
27.47
27.51
27.51
27.51
27.51
27.45
27.45
27.45
27.45
27.45
27.45
27.45
27.45
27.51
27.51
27.51
27.51
27.47
27.47
27.47
27.47
27.47
27.47
27.47
27.47
27.45
27.45
27.45
27.45
27.45
27.45
27.45
27.45
27.43
27.43
27.43
27.43
27.51
27.51
27.51
27.51
27.51
27.51
27.51
27.51
27.49
27.49
27.49
27.49
27.51
27.51
27.51
27.51
27.55
27.55
27.55
27.55
27.55
27.55
27.55
27.55
27.55
27.55
27.55
27.55
27.51
27.51
27.51
27.51
27.51
27.51
27.51
27.51
27.53
27.53
27.53
27.53
27.53
27.53
27.53
27.53
27.51
27.51
27.51
27.51
27.53
27.53
27.53
27.53
27.55
27.55
27.55
27.55
27.53
27.53
27.53
27.53
27.55
27.55
27.55
27.55
27.55
27.55
27.55
27.55
27.55
27.55
27.55
27.55
27.57
27.57
27.57
27.57
27.57
27.57
27.57
27.57
27.59
27.59
27.59
27.59
27.55
27.55
27.55
27.55
27.57
27.57
27.57
27.57
27.55
27.55
27.55
27.55
27.55
27.55
27.55
27.55
27.55
27.55
27.55
27.55
27.57
27.57
27.57
27.57
27.59
27.59
27.59
27.59
27.55
27.55
27.55
27.55
27.55
27.55
27.55
27.55
27.59
27.59
27.59
27.59
27.59
27.59
27.59
27.59
27.57
27.57
27.57
27.57
27.59
27.59
27.59
27.59
27.59
27.59
27.59
27.59
27.57
27.57
27.57
27.57
27.61
27.61
27.61
27.61
27.57
27.57
27.57
27.57
27.59
27.59
27.59
27.59
27.57
27.57
27.57
27.57
27.59
27.59
27.59
27.59
27.55
27.55
27.55
27.55
27.55
27.55
27.55
27.55
27.55
27.55
27.55
27.55
27.53
27.53
27.53
27.53
27.57
27.57
27.57
27.57
27.57
27.57
27.57
27.57
27.61
27.61
27.61
27.61
27.57
27.57
27.57
27.57
27.59
27.59
27.59
27.59
27.61
27.61
27.61
27.61
27.59
27.59
27.59
27.59
27.57
27.57
27.57
27.57
27.57
27.57
27.57
27.57
27.57
27.57
27.57
27.57
27.55
27.55
27.55
27.55
27.57
27.57
27.57
27.57
27.57
27.57
27.57
27.57
27.55
27.55
27.55
27.55
27.57
27.57
27.57
27.57
27.57
27.57
27.57
27.57
27.55
27.55
27.55
27.55
27.55
27.55
27.55
27.55
27.59
27.59
27.59
27.59
27.59
27.59
27.59
27.59
27.63
27.63
27.63
27.63
27.59
27.59
27.59
27.59
27.59
27.59
27.59
27.59
27.61
27.61
27.61
27.61
27.61
27.61
27.61
27.61
27.57
27.57
27.57
27.57
27.61
27.61
27.61
27.61
27.67
27.67
27.67
27.67
27.65
27.65
27.65
27.65
27.67
27.67
27.67
27.67
27.65
27.65
27.65
27.65
27.63
27.63
27.63
27.63
27.65
27.65
27.65
27.65
27.65
27.65
27.65
27.65
27.65
27.65
27.65
27.65
27.67
27.67
27.67
27.67
27.67
27.67
27.67
27.67
27.69
27.69
27.69
27.69
27.69
27.69
27.69
27.69
27.71
27.71
27.71
27.71
27.67
27.67
27.67
27.67
27.69
27.69
27.69
27.69
27.67
27.67
27.67
27.67
27.69
27.69
27.69
27.69
27.67
27.67
27.67
27.67
27.69
27.69
27.69
27.69
27.69
27.69
27.69
27.69
27.69
27.69
27.69
27.69
27.67
27.67
27.67
27.67
27.67
27.67
27.67
27.67
27.65
27.65
27.65
27.65
27.65
27.65
27.65
27.65
27.67
27.67
27.67
27.67
27.65
27.65
27.65
27.65
27.65
27.65
27.65
27.65
27.69
27.69
27.69
27.69
27.69
27.69
27.69
27.69
27.71
27.71
27.71
27.71
27.67
27.67
27.67
27.67
27.69
27.69
27.69
27.69
27.67
27.67
27.67
27.67
27.69
27.69
27.69
27.69
27.67
27.67
27.67
27.67
27.67
27.67
27.67
27.67
27.69
27.69
27.69
27.69
27.67
27.67
27.67
27.67
27.69
27.69
27.69
27.69
27.65
27.65
27.65
27.65
27.65
27.65
27.65
27.65
27.65
27.65
27.65
27.65
27.67
27.67
27.67
27.67
27.71
27.71
27.71
27.71
27.71
27.71
27.71
27.71
27.73
27.73
27.73
27.73
27.67
27.67
27.67
27.67
27.67
27.67
27.67
27.67
27.67
27.67
27.67
27.67
27.65
27.65
27.65
27.65
27.67
27.67
27.67
27.67
27.63
27.63
27.63
27.63
27.67
27.67
27.67
27.67
27.73
27.73
27.73
27.73
27.73
27.73
27.73
27.73
27.73
27.73
27.73
27.73
27.73
27.73
27.73
27.73
27.75
27.75
27.75
27.75
27.75
27.75
27.75
27.75
27.73
27.73
27.73
27.73
27.83
27.83
27.83
27.83
27.85
27.85
27.85
27.85
27.85
27.85
27.85
27.85
27.81
27.81
27.81
27.81
27.83
27.83
27.83
27.83
27.85
27.85
27.85
27.85
27.83
27.83
27.83
27.83
27.83
27.83
27.83
27.83
27.85
27.85
27.85
27.85
27.85
27.85
27.85
27.85
27.83
27.83
27.83
27.83
27.81
27.81
27.81
27.81
27.79
27.79
27.79
27.79
27.83
27.83
27.83
27.83
27.77
27.77
27.77
27.77
27.75
27.75
27.75
27.75
27.77
27.77
27.77
27.77
27.73
27.73
27.73
27.73
27.79
27.79
27.79
27.79
27.77
27.77
27.77
27.77
27.73
27.73
27.73
27.73
27.73
27.73
27.73
27.73
27.79
27.79
27.79
27.79
27.83
27.83
27.83
27.83
27.81
27.81
27.81
27.81
27.79
27.79
27.79
27.79
27.81
27.81
27.81
27.81
27.79
27.79
27.79
27.79
27.79
27.79
27.79
27.79
27.83
27.83
27.83
27.83
27.83
27.83
27.83
27.83
27.85
27.85
27.85
27.85
27.81
27.81
27.81
27.81
27.83
27.83
27.83
27.83
27.83
27.83
27.83
27.83
27.81
27.81
27.81
27.81
27.81
27.81
27.81
27.81
27.83
27.83
27.83
27.83
27.83
27.83
27.83
27.83
27.85
27.85
27.85
27.85
27.83
27.83
27.83
27.83
27.87
27.87
27.87
27.87
27.83
27.83
27.83
27.83
27.81
27.81
27.81
27.81
27.79
27.79
27.79
27.79
27.81
27.81
27.81
27.81
27.83
27.83
27.83
27.83
27.87
27.87
27.87
27.87
27.81
27.81
27.81
27.81
27.85
27.85
27.85
27.85
27.89
27.89
27.89
27.89
27.85
27.85
27.85
27.85
27.85
27.85
27.85
27.85
27.89
27.89
27.89
27.89
27.95
27.95
27.95
27.95
27.97
27.97
27.97
27.97
27.99
27.99
27.99
27.99
27.91
27.91
27.91
27.91
27.95
27.95
27.95
27.95
27.91
27.91
27.91
27.91
27.93
27.93
27.93
27.93
27.95
27.95
27.95
27.95
27.97
27.97
27.97
27.97
27.95
27.95
27.95
27.95
27.95
27.95
27.95
27.95
27.97
27.97
27.97
27.97
27.97
27.97
27.97
27.97
27.99
27.99
27.99
27.99
27.97
27.97
27.97
27.97
27.99
27.99
27.99
27.99
27.99
27.99
27.99
27.99
28.01
28.01
28.01
28.01
27.97
27.97
27.97
27.97
28.01
28.01
28.01
28.01
27.99
27.99
27.99
27.99
28.09
28.09
28.09
28.09
28.09
28.09
28.09
28.09
28.09
28.09
28.09
28.09
28.01
28.01
28.01
28.01
28.01
28.01
28.01
28.01
28.03
28.03
28.03
28.03
28.03
28.03
28.03
28.03
28.09
28.09
28.09
28.09
28.09
28.09
28.09
28.09
28.11
28.11
28.11
28.11
28.11
28.11
28.11
28.11
28.07
28.07
28.07
28.07
28.11
28.11
28.11
28.11
28.09
28.09
28.09
28.09
28.13
28.13
28.13
28.13
28.13
28.13
28.13
28.13
28.19
28.19
28.19
28.19
28.23
28.23
28.23
28.23
28.23
28.23
28.23
28.23
28.19
28.19
28.19
28.19
28.21
28.21
28.21
28.21
28.23
28.23
28.23
28.23
28.23
28.23
28.23
28.23
28.21
28.21
28.21
28.21
28.21
28.21
28.21
28.21
28.21
28.21
28.21
28.21
28.21
28.21
28.21
28.21
28.21
28.21
28.21
28.21
28.23
28.23
28.23
28.23
28.23
28.23
28.23
28.23
28.23
28.23
28.23
28.23
28.29
28.29
28.29
28.29
28.31
28.31
28.31
28.31
28.31
28.31
28.31
28.31
28.31
28.31
28.31
28.31
28.37
28.37
28.37
28.37
28.37
28.37
28.37
28.37
28.37
28.37
28.37
28.37
28.35
28.35
28.35
28.35
28.37
28.37
28.37
28.37
28.35
28.35
28.35
28.35
28.39
28.39
28.39
28.39
28.37
28.37
28.37
28.37
28.37
28.37
28.37
28.37
28.35
28.35
28.35
28.35
28.35
28.35
28.35
28.35
28.35
28.35
28.35
28.35
28.37
28.37
28.37
28.37
28.35
28.35
28.35
28.35
28.41
28.41
28.41
28.41
28.39
28.39
28.39
28.39
28.39
28.39
28.39
28.39
28.41
28.41
28.41
28.41
28.51
28.51
28.51
28.51
28.49
28.49
28.49
28.49
28.49
28.49
28.49
28.49
28.47
28.47
28.47
28.47
28.47
28.47
28.47
28.47
28.47
28.47
28.47
28.47
28.49
28.49
28.49
28.49
28.51
28.51
28.51
28.51
28.49
28.49
28.49
28.49
28.49
28.49
28.49
28.49
28.51
28.51
28.51
28.51
28.51
28.51
28.51
28.51
28.55
28.55
28.55
28.55
28.57
28.57
28.57
28.57
28.57
28.57
28.57
28.57
28.53
28.53
28.53
28.53
28.55
28.55
28.55
28.55
28.53
28.53
28.53
28.53
28.55
28.55
28.55
28.55
28.53
28.53
28.53
28.53
28.53
28.53
28.53
28.53
28.55
28.55
28.55
28.55
28.55
28.55
28.55
28.55
28.55
28.55
28.55
28.55
28.59
28.59
28.59
28.59
28.63
28.63
28.63
28.63
28.67
28.67
28.67
28.67
28.67
28.67
28.67
28.67
28.65
28.65
28.65
28.65
28.65
28.65
28.65
28.65
28.65
28.65
28.65
28.65
28.61
28.61
28.61
28.61
28.63
28.63
28.63
28.63
28.61
28.61
28.61
28.61
28.63
28.63
28.63
28.63
28.65
28.65
28.65
28.65
28.69
28.69
28.69
28.69
28.67
28.67
28.67
28.67
28.67
28.67
28.67
28.67
28.69
28.69
28.69
28.69
28.67
28.67
28.67
28.67
28.71
28.71
28.71
28.71
28.73
28.73
28.73
28.73
28.71
28.71
28.71
28.71
28.71
28.71
28.71
28.71
28.73
28.73
28.73
28.73
28.73
28.73
28.73
28.73
28.79
28.79
28.79
28.79
28.79
28.79
28.79
28.79
28.79
28.79
28.79
28.79
28.79
28.79
28.79
28.79
28.79
28.79
28.79
28.79
28.81
28.81
28.81
28.81
28.81
28.81
28.81
28.81
28.83
28.83
28.83
28.83
28.83
28.83
28.83
28.83
28.85
28.85
28.85
28.85
28.81
28.81
28.81
28.81
28.85
28.85
28.85
28.85
28.85
28.85
28.85
28.85
28.83
28.83
28.83
28.83
28.85
28.85
28.85
28.85
28.85
28.85
28.85
28.85
28.83
28.83
28.83
28.83
28.83
28.83
28.83
28.83
28.83
28.83
28.83
28.83
28.85
28.85
28.85
28.85
28.85
28.85
28.85
28.85
28.89
28.89
28.89
28.89
28.87
28.87
28.87
28.87
28.87
28.87
28.87
28.87
28.91
28.91
28.91
28.91
28.91
28.91
28.91
28.91
28.91
28.91
28.91
28.91
28.93
28.93
28.93
28.93
28.97
28.97
28.97
28.97
28.99
28.99
28.99
28.99
28.95
28.95
28.95
28.95
28.95
28.95
28.95
28.95
28.95
28.95
28.95
28.95
28.95
28.95
28.95
28.95
28.97
28.97
28.97
28.97
28.97
28.97
28.97
28.97
28.97
28.97
28.97
28.97
28.99
28.99
28.99
28.99
28.99
28.99
28.99
28.99
28.99
28.99
28.99
28.99
29.05
29.05
29.05
29.05
29.09
29.09
29.09
29.09
29.05
29.05
29.05
29.05
29.03
29.03
29.03
29.03
29.03
29.03
29.03
29.03
29.05
29.05
29.05
29.05
29.01
29.01
29.01
29.01
29.05
29.05
29.05
29.05
29.05
29.05
29.05
29.05
29.07
29.07
29.07
29.07
29.07
29.07
29.07
29.07
29.09
29.09
29.09
29.09
29.09
29.09
29.09
29.09
29.11
29.11
29.11
29.11
29.09
29.09
29.09
29.09
29.11
29.11
29.11
29.11
29.11
29.11
29.11
29.11
29.11
29.11
29.11
29.11
29.11
29.11
29.11
29.11
29.11
29.11
29.11
29.11
29.11
29.11
29.11
29.11
29.09
29.09
29.09
29.09
29.11
29.11
29.11
29.11
29.11
29.11
29.11
29.11
29.13
29.13
29.13
29.13
29.11
29.11
29.11
29.11
29.13
29.13
29.13
29.13
29.11
29.11
29.11
29.11
29.11
29.11
29.11
29.11
29.11
29.11
29.11
29.11
29.11
29.11
29.11
29.11
29.11
29.11
29.11
29.11
29.13
29.13
29.13
29.13
29.13
29.13
29.13
29.13
29.11
29.11
29.11
29.11
29.09
29.09
29.09
29.09
29.09
29.09
29.09
29.09
29.11
29.11
29.11
29.11
29.11
29.11
29.11
29.11
29.09
29.09
29.09
29.09
29.09
29.09
29.09
29.09
29.07
29.07
29.07
29.07
29.05
29.05
29.05
29.05
29.07
29.07
29.07
29.07
29.03
29.03
29.03
29.03
29.03
29.03
29.03
29.03
29.03
29.03
29.03
29.03
29.05
29.05
29.05
29.05
29.05
29.05
29.05
29.05
29.05
29.05
29.05
29.05
29.05
29.05
29.05
29.05
29.09
29.09
29.09
29.09
29.09
29.09
29.09
29.09
29.01
29.01
29.01
29.01
29.01
29.01
29.01
29.01
29.03
29.03
29.03
29.03
29.01
29.01
29.01
29.01
29.05
29.05
29.05
29.05
29.03
29.03
29.03
29.03
29.03
29.03
29.03
29.03
29.03
29.03
29.03
29.03
29.05
29.05
29.05
29.05
29.05
29.05
29.05
29.05
29.05
29.05
29.05
29.05
29.03
29.03
29.03
29.03
29.05
29.05
29.05
29.05
29.03
29.03
29.03
29.03
29.05
29.05
29.05
29.05
29.05
29.05
29.05
29.05
29.07
29.07
29.07
29.07
29.07
29.07
29.07
29.07
29.13
29.13
29.13
29.13
29.11
29.11
29.11
29.11
29.11
29.11
29.11
29.11
29.13
29.13
29.13
29.13
29.13
29.13
29.13
29.13
29.13
29.13
29.13
29.13
29.13
29.13
29.13
29.13
29.21
29.21
29.21
29.21
29.23
29.23
29.23
29.23
29.19
29.19
29.19
29.19
29.21
29.21
29.21
29.21
29.19
29.19
29.19
29.19
29.21
29.21
29.21
29.21
29.21
29.21
29.21
29.21
29.21
29.21
29.21
29.21
29.21
29.21
29.21
29.21
29.27
29.27
29.27
29.27
29.25
29.25
29.25
29.25
29.23
29.23
29.23
29.23
29.27
29.27
29.27
29.27
29.31
29.31
29.31
29.31
29.31
29.31
29.31
29.31
29.33
29.33
29.33
29.33
29.37
29.37
29.37
29.37
29.33
29.33
29.33
29.33
29.33
29.33
29.33
29.33
29.35
29.35
29.35
29.35
29.31
29.31
29.31
29.31
29.33
29.33
29.33
29.33
29.35
29.35
29.35
29.35
29.35
29.35
29.35
29.35
29.35
29.35
29.35
29.35
29.35
29.35
29.35
29.35
29.35
29.35
29.35
29.35
29.37
29.37
29.37
29.37
29.35
29.35
29.35
29.35
29.35
29.35
29.35
29.35
29.35
29.35
29.35
29.35
29.41
29.41
29.41
29.41
29.41
29.41
29.41
29.41
29.43
29.43
29.43
29.43
29.41
29.41
29.41
29.41
29.43
29.43
29.43
29.43
29.43
29.43
29.43
29.43
29.45
29.45
29.45
29.45
29.49
29.49
29.49
29.49
29.51
29.51
29.51
29.51
29.47
29.47
29.47
29.47
29.47
29.47
29.47
29.47
29.45
29.45
29.45
29.45
29.47
29.47
29.47
29.47
29.49
29.49
29.49
29.49
29.49
29.49
29.49
29.49
29.49
29.49
29.49
29.49
29.49
29.49
29.49
29.49
29.53
29.53
29.53
29.53
29.49
29.49
29.49
29.49
29.49
29.49
29.49
29.49
29.49
29.49
29.49
29.49
29.51
29.51
29.51
29.51
29.51
29.51
29.51
29.51
29.51
29.51
29.51
29.51
29.49
29.49
29.49
29.49
29.49
29.49
29.49
29.49
29.49
29.49
29.49
29.49
29.49
29.49
29.49
29.49
29.49
29.49
29.49
29.49
29.53
29.53
29.53
29.53
29.53
29.53
29.53
29.53
29.55
29.55
29.55
29.55
29.55
29.55
29.55
29.55
29.55
29.55
29.55
29.55
29.57
29.57
29.57
29.57
29.55
29.55
29.55
29.55
29.57
29.57
29.57
29.57
29.59
29.59
29.59
29.59
29.55
29.55
29.55
29.55
29.53
29.53
29.53
29.53
29.57
29.57
29.57
29.57
29.53
29.53
29.53
29.53
29.51
29.51
29.51
29.51
29.51
29.51
29.51
29.51
29.55
29.55
29.55
29.55
29.57
29.57
29.57
29.57
29.59
29.59
29.59
29.59
29.57
29.57
29.57
29.57
29.57
29.57
29.57
29.57
29.57
29.57
29.57
29.57
29.57
29.57
29.57
29.57
29.57
29.57
29.57
29.57
29.59
29.59
29.59
29.59
29.57
29.57
29.57
29.57
29.59
29.59
29.59
29.59
29.55
29.55
29.55
29.55
29.55
29.55
29.55
29.55
29.57
29.57
29.57
29.57
29.57
29.57
29.57
29.57
29.59
29.59
29.59
29.59
29.57
29.57
29.57
29.57
29.61
29.61
29.61
29.61
29.61
29.61
29.61
29.61
29.61
29.61
29.61
29.61
29.61
29.61
29.61
29.61
29.63
29.63
29.63
29.63
29.63
29.63
29.63
29.63
29.61
29.61
29.61
29.61
29.63
29.63
29.63
29.63
29.63
29.63
29.63
29.63
29.65
29.65
29.65
29.65
29.65
29.65
29.65
29.65
29.63
29.63
29.63
29.63
29.67
29.67
29.67
29.67
29.69
29.69
29.69
29.69
29.69
29.69
29.69
29.69
29.67
29.67
29.67
29.67
29.69
29.69
29.69
29.69
29.67
29.67
29.67
29.67
29.69
29.69
29.69
29.69
29.71
29.71
29.71
29.71
29.69
29.69
29.69
29.69
29.67
29.67
29.67
29.67
29.67
29.67
29.67
29.67
29.69
29.69
29.69
29.69
29.69
29.69
29.69
29.69
29.67
29.67
29.67
29.67
29.69
29.69
29.69
29.69
29.69
29.69
29.69
29.69
29.69
29.69
29.69
29.69
29.69
29.69
29.69
29.69
29.71
29.71
29.71
29.71
29.73
29.73
29.73
29.73
29.71
29.71
29.71
29.71
29.75
29.75
29.75
29.75
29.71
29.71
29.71
29.71
29.73
29.73
29.73
29.73
29.63
29.63
29.63
29.63
29.61
29.61
29.61
29.61
29.63
29.63
29.63
29.63
29.59
29.59
29.59
29.59
29.61
29.61
29.61
29.61
29.61
29.61
29.61
29.61
29.61
29.61
29.61
29.61
29.63
29.63
29.63
29.63
29.63
29.63
29.63
29.63
29.63
29.63
29.63
29.63
29.63
29.63
29.63
29.63
29.61
29.61
29.61
29.61
29.63
29.63
29.63
29.63
29.65
29.65
29.65
29.65
29.67
29.67
29.67
29.67
29.61
29.61
29.61
29.61
29.65
29.65
29.65
29.65
29.67
29.67
29.67
29.67
29.61
29.61
29.61
29.61
29.61
29.61
29.61
29.61
29.59
29.59
29.59
29.59
29.57
29.57
29.57
29.57
29.59
29.59
29.59
29.59
29.57
29.57
29.57
29.57
29.59
29.59
29.59
29.59
29.57
29.57
29.57
29.57
29.59
29.59
29.59
29.59
29.71
29.71
29.71
29.71
29.67
29.67
29.67
29.67
29.67
29.67
29.67
29.67
29.67
29.67
29.67
29.67
29.67
29.67
29.67
29.67
29.65
29.65
29.65
29.65
29.65
29.65
29.65
29.65
29.63
29.63
29.63
29.63
29.61
29.61
29.61
29.61
29.65
29.65
29.65
29.65
29.65
29.65
29.65
29.65
29.65
29.65
29.65
29.65
29.65
29.65
29.65
29.65
29.61
29.61
29.61
29.61
29.59
29.59
29.59
29.59
29.63
29.63
29.63
29.63
29.65
29.65
29.65
29.65
29.61
29.61
29.61
29.61
29.61
29.61
29.61
29.61
29.57
29.57
29.57
29.57
29.57
29.57
29.57
29.57
29.59
29.59
29.59
29.59
29.57
29.57
29.57
29.57
29.57
29.57
29.57
29.57
29.57
29.57
29.57
29.57
29.57
29.57
29.57
29.57
29.57
29.57
29.57
29.57
29.57
29.57
29.57
29.57
29.55
29.55
29.55
29.55
29.55
29.55
29.55
29.55
29.55
29.55
29.55
29.55
29.57
29.57
29.57
29.57
29.57
29.57
29.57
29.57
29.55
29.55
29.55
29.55
29.55
29.55
29.55
29.55
29.57
29.57
29.57
29.57
29.57
29.57
29.57
29.57
29.55
29.55
29.55
29.55
29.55
29.55
29.55
29.55
29.53
29.53
29.53
29.53
29.55
29.55
29.55
29.55
29.53
29.53
29.53
29.53
29.53
29.53
29.53
29.53
29.55
29.55
29.55
29.55
29.55
29.55
29.55
29.55
29.55
29.55
29.55
29.55
29.55
29.55
29.55
29.55
29.57
29.57
29.57
29.57
29.55
29.55
29.55
29.55
29.49
29.49
29.49
29.49
29.51
29.51
29.51
29.51
29.51
29.51
29.51
29.51
29.51
29.51
29.51
29.51
29.51
29.51
29.51
29.51
29.53
29.53
29.53
29.53
29.53
29.53
29.53
29.53
29.51
29.51
29.51
29.51
29.51
29.51
29.51
29.51
29.49
29.49
29.49
29.49
29.51
29.51
29.51
29.51
29.53
29.53
29.53
29.53
29.51
29.51
29.51
29.51
29.51
29.51
29.51
29.51
29.47
29.47
29.47
29.47
29.49
29.49
29.49
29.49
29.45
29.45
29.45
29.45
29.47
29.47
29.47
29.47
29.49
29.49
29.49
29.49
29.45
29.45
29.45
29.45
29.45
29.45
29.45
29.45
29.45
29.45
29.45
29.45
29.47
29.47
29.47
29.47
29.51
29.51
29.51
29.51
29.47
29.47
29.47
29.47
29.45
29.45
29.45
29.45
29.45
29.45
29.45
29.45
29.47
29.47
29.47
29.47
29.45
29.45
29.45
29.45
29.45
29.45
29.45
29.45
29.47
29.47
29.47
29.47
29.47
29.47
29.47
29.47
29.45
29.45
29.45
29.45
29.47
29.47
29.47
29.47
29.45
29.45
29.45
29.45
29.43
29.43
29.43
29.43
29.45
29.45
29.45
29.45
29.39
29.39
29.39
29.39
29.41
29.41
29.41
29.41
29.41
29.41
29.41
29.41
29.39
29.39
29.39
29.39
29.39
29.39
29.39
29.39
29.39
29.39
29.39
29.39
29.37
29.37
29.37
29.37
29.37
29.37
29.37
29.37
29.35
29.35
29.35
29.35
29.35
29.35
29.35
29.35
29.35
29.35
29.35
29.35
29.35
29.35
29.35
29.35
29.33
29.33
29.33
29.33
29.33
29.33
29.33
29.33
29.29
29.29
29.29
29.29
29.33
29.33
29.33
29.33
29.31
29.31
29.31
29.31
29.33
29.33
29.33
29.33
29.33
29.33
29.33
29.33
29.31
29.31
29.31
29.31
29.27
29.27
29.27
29.27
29.27
29.27
29.27
29.27
29.29
29.29
29.29
29.29
29.23
29.23
29.23
29.23
29.27
29.27
29.27
29.27
29.25
29.25
29.25
29.25
29.25
29.25
29.25
29.25
29.25
29.25
29.25
29.25
29.21
29.21
29.21
29.21
29.21
29.21
29.21
29.21
29.21
29.21
29.21
29.21
29.19
29.19
29.19
29.19
29.19
29.19
29.19
29.19
29.21
29.21
29.21
29.21
29.25
29.25
29.25
29.25
29.23
29.23
29.23
29.23
29.21
29.21
29.21
29.21
29.27
29.27
29.27
29.27
29.23
29.23
29.23
29.23
29.23
29.23
29.23
29.23
29.23
29.23
29.23
29.23
29.23
29.23
29.23
29.23
29.23
29.23
29.23
29.23
29.19
29.19
29.19
29.19
29.21
29.21
29.21
29.21
29.21
29.21
29.21
29.21
29.17
29.17
29.17
29.17
29.19
29.19
29.19
29.19
29.19
29.19
29.19
29.19
29.17
29.17
29.17
29.17
29.17
29.17
29.17
29.17
29.19
29.19
29.19
29.19
29.17
29.17
29.17
29.17
29.15
29.15
29.15
29.15
29.13
29.13
29.13
29.13
29.13
29.13
29.13
29.13
29.13
29.13
29.13
29.13
29.11
29.11
29.11
29.11
29.11
29.11
29.11
29.11
29.11
29.11
29.11
29.11
29.07
29.07
29.07
29.07
29.07
29.07
29.07
29.07
29.09
29.09
29.09
29.09
29.07
29.07
29.07
29.07
29.07
29.07
29.07
29.07
29.07
29.07
29.07
29.07
29.07
29.07
29.07
29.07
29.07
29.07
29.07
29.07
29.05
29.05
29.05
29.05
29.05
29.05
29.05
29.05
29.03
29.03
29.03
29.03
29.05
29.05
29.05
29.05
29.05
29.05
29.05
29.05
29.05
29.05
29.05
29.05
29.03
29.03
29.03
29.03
29.05
29.05
29.05
29.05
29.05
29.05
29.05
29.05
29.03
29.03
29.03
29.03
29.03
29.03
29.03
29.03
29.03
29.03
29.03
29.03
29.01
29.01
29.01
29.01
29.01
29.01
29.01
29.01
29.01
29.01
29.01
29.01
29.01
29.01
29.01
29.01
29.01
29.01
29.01
29.01
28.97
28.97
28.97
28.97
28.99
28.99
28.99
28.99
28.99
28.99
28.99
28.99
28.95
28.95
28.95
28.95
28.95
28.95
28.95
28.95
28.95
28.95
28.95
28.95
28.93
28.93
28.93
28.93
28.95
28.95
28.95
28.95
28.93
28.93
28.93
28.93
28.93
28.93
28.93
28.93
28.93
28.93
28.93
28.93
28.89
28.89
28.89
28.89
28.89
28.89
28.89
28.89
28.89
28.89
28.89
28.89
28.89
28.89
28.89
28.89
28.87
28.87
28.87
28.87
28.85
28.85
28.85
28.85
28.87
28.87
28.87
28.87
28.83
28.83
28.83
28.83
28.83
28.83
28.83
28.83
28.83
28.83
28.83
28.83
28.83
28.83
28.83
28.83
28.81
28.81
28.81
28.81
28.81
28.81
28.81
28.81
28.81
28.81
28.81
28.81
28.81
28.81
28.81
28.81
28.79
28.79
28.79
28.79
28.79
28.79
28.79
28.79
28.79
28.79
28.79
28.79
28.77
28.77
28.77
28.77
28.77
28.77
28.77
28.77
28.77
28.77
28.77
28.77
28.77
28.77
28.77
28.77
28.75
28.75
28.75
28.75
28.77
28.77
28.77
28.77
28.75
28.75
28.75
28.75
28.75
28.75
28.75
28.75
28.75
28.75
28.75
28.75
28.71
28.71
28.71
28.71
28.73
28.73
28.73
28.73
28.75
28.75
28.75
28.75
28.71
28.71
28.71
28.71
28.71
28.71
28.71
28.71
28.71
28.71
28.71
28.71
28.69
28.69
28.69
28.69
28.71
28.71
28.71
28.71
28.71
28.71
28.71
28.71
28.69
28.69
28.69
28.69
28.69
28.69
28.69
28.69
28.69
28.69
28.69
28.69
28.65
28.65
28.65
28.65
28.65
28.65
28.65
28.65
28.67
28.67
28.67
28.67
28.67
28.67
28.67
28.67
28.67
28.67
28.67
28.67
28.67
28.67
28.67
28.67
28.67
28.67
28.67
28.67
28.63
28.63
28.63
28.63
28.65
28.65
28.65
28.65
28.63
28.63
28.63
28.63
28.63
28.63
28.63
28.63
28.63
28.63
28.63
28.63
28.63
28.63
28.63
28.63
28.61
28.61
28.61
28.61
28.61
28.61
28.61
28.61
28.63
28.63
28.63
28.63
28.61
28.61
28.61
28.61
28.61
28.61
28.61
28.61
28.61
28.61
28.61
28.61
28.61
28.61
28.61
28.61
28.57
28.57
28.57
28.57
28.61
28.61
28.61
28.61
28.59
28.59
28.59
28.59
28.59
28.59
28.59
28.59
28.57
28.57
28.57
28.57
28.57
28.57
28.57
28.57
28.57
28.57
28.57
28.57
28.55
28.55
28.55
28.55
28.53
28.53
28.53
28.53
28.53
28.53
28.53
28.53
28.53
28.53
28.53
28.53
28.49
28.49
28.49
28.49
28.49
28.49
28.49
28.49
28.49
28.49
28.49
28.49
28.51
28.51
28.51
28.51
28.49
28.49
28.49
28.49
28.45
28.45
28.45
28.45
28.47
28.47
28.47
28.47
28.43
28.43
28.43
28.43
28.43
28.43
28.43
28.43
28.41
28.41
28.41
28.41
28.43
28.43
28.43
28.43
28.39
28.39
28.39
28.39
28.39
28.39
28.39
28.39
28.37
28.37
28.37
28.37
28.37
28.37
28.37
28.37
28.37
28.37
28.37
28.37
28.35
28.35
28.35
28.35
28.33
28.33
28.33
28.33
28.31
28.31
28.31
28.31
28.31
28.31
28.31
28.31
28.29
28.29
28.29
28.29
28.27
28.27
28.27
28.27
28.25
28.25
28.25
28.25
28.21
28.21
28.21
28.21
28.21
28.21
28.21
28.21
28.23
28.23
28.23
28.23
28.21
28.21
28.21
28.21
28.23
28.23
28.23
28.23
28.13
28.13
28.13
28.13
28.15
28.15
28.15
28.15
28.13
28.13
28.13
28.13
28.11
28.11
28.11
28.11
28.13
28.13
28.13
28.13
28.07
28.07
28.07
28.07
28.11
28.11
28.11
28.11
28.13
28.13
28.13
28.13
28.15
28.15
28.15
28.15
28.11
28.11
28.11
28.11
28.11
28.11
28.11
28.11
28.07
28.07
28.07
28.07
28.07
28.07
28.07
28.07
28.05
28.05
28.05
28.05
28.05
28.05
28.05
28.05
28.03
28.03
28.03
28.03
28.01
28.01
28.01
28.01
28.01
28.01
28.01
28.01
28.05
28.05
28.05
28.05
27.99
27.99
27.99
27.99
27.97
27.97
27.97
27.97
28.01
28.01
28.01
28.01
27.93
27.93
27.93
27.93
27.91
27.91
27.91
27.91
27.89
27.89
27.89
27.89
27.89
27.89
27.89
27.89
27.87
27.87
27.87
27.87
27.85
27.85
27.85
27.85
27.85
27.85
27.85
27.85
27.85
27.85
27.85
27.85
27.83
27.83
27.83
27.83
27.83
27.83
27.83
27.83
27.81
27.81
27.81
27.81
27.83
27.83
27.83
27.83
27.85
27.85
27.85
27.85
27.85
27.85
27.85
27.85
27.85
27.85
27.85
27.85
27.85
27.85
27.85
27.85
27.83
27.83
27.83
27.83
27.85
27.85
27.85
27.85
27.79
27.79
27.79
27.79
27.79
27.79
27.79
27.79
27.79
27.79
27.79
27.79
27.81
27.81
27.81
27.81
27.79
27.79
27.79
27.79
27.77
27.77
27.77
27.77
27.77
27.77
27.77
27.77
27.75
27.75
27.75
27.75
27.73
27.73
27.73
27.73
27.75
27.75
27.75
27.75
27.73
27.73
27.73
27.73
27.73
27.73
27.73
27.73
27.73
27.73
27.73
27.73
27.71
27.71
27.71
27.71
27.75
27.75
27.75
27.75
27.71
27.71
27.71
27.71
27.71
27.71
27.71
27.71
27.71
27.71
27.71
27.71
27.71
27.71
27.71
27.71
27.67
27.67
27.67
27.67
27.69
27.69
27.69
27.69
27.65
27.65
27.65
27.65
27.65
27.65
27.65
27.65
27.65
27.65
27.65
27.65
27.63
27.63
27.63
27.63
27.61
27.61
27.61
27.61
27.61
27.61
27.61
27.61
27.59
27.59
27.59
27.59
27.61
27.61
27.61
27.61
27.57
27.57
27.57
27.57
27.61
27.61
27.61
27.61
27.59
27.59
27.59
27.59
27.63
27.63
27.63
27.63
27.57
27.57
27.57
27.57
27.59
27.59
27.59
27.59
27.59
27.59
27.59
27.59
27.63
27.63
27.63
27.63
27.63
27.63
27.63
27.63
27.61
27.61
27.61
27.61
27.59
27.59
27.59
27.59
27.55
27.55
27.55
27.55
27.59
27.59
27.59
27.59
27.59
27.59
27.59
27.59
27.61
27.61
27.61
27.61
27.57
27.57
27.57
27.57
27.57
27.57
27.57
27.57
27.57
27.57
27.57
27.57
27.61
27.61
27.61
27.61
27.61
27.61
27.61
27.61
27.57
27.57
27.57
27.57
27.63
27.63
27.63
27.63
27.55
27.55
27.55
27.55
27.53
27.53
27.53
27.53
27.51
27.51
27.51
27.51
27.45
27.45
27.45
27.45
27.49
27.49
27.49
27.49
27.47
27.47
27.47
27.47
27.47
27.47
27.47
27.47
27.47
27.47
27.47
27.47
27.49
27.49
27.49
27.49
27.47
27.47
27.47
27.47
27.51
27.51
27.51
27.51
27.51
27.51
27.51
27.51
27.47
27.47
27.47
27.47
27.51
27.51
27.51
27.51
27.49
27.49
27.49
27.49
27.49
27.49
27.49
27.49
27.53
27.53
27.53
27.53
27.51
27.51
27.51
27.51
27.49
27.49
27.49
27.49
27.55
27.55
27.55
27.55
27.55
27.55
27.55
27.55
27.55
27.55
27.55
27.55
27.55
27.55
27.55
27.55
27.57
27.57
27.57
27.57
27.57
27.57
27.57
27.57
27.55
27.55
27.55
27.55
27.53
27.53
27.53
27.53
27.53
27.53
27.53
27.53
27.51
27.51
27.51
27.51
27.53
27.53
27.53
27.53
27.51
27.51
27.51
27.51
27.51
27.51
27.51
27.51
27.45
27.45
27.45
27.45
27.45
27.45
27.45
27.45
27.51
27.51
27.51
27.51
27.51
27.51
27.51
27.51
27.51
27.51
27.51
27.51
27.53
27.53
27.53
27.53
27.47
27.47
27.47
27.47
27.45
27.45
27.45
27.45
27.45
27.45
27.45
27.45
27.47
27.47
27.47
27.47
27.47
27.47
27.47
27.47
27.45
27.45
27.45
27.45
27.45
27.45
27.45
27.45
27.43
27.43
27.43
27.43
27.45
27.45
27.45
27.45
27.49
27.49
27.49
27.49
27.51
27.51
27.51
27.51
27.49
27.49
27.49
27.49
27.51
27.51
27.51
27.51
27.53
27.53
27.53
27.53
27.51
27.51
27.51
27.51
27.53
27.53
27.53
27.53
27.49
27.49
27.49
27.49
27.47
27.47
27.47
27.47
27.49
27.49
27.49
27.49
27.45
27.45
27.45
27.45
27.45
27.45
27.45
27.45
27.45
27.45
27.45
27.45
27.57
27.57
27.57
27.57
27.53
27.53
27.53
27.53
27.53
27.53
27.53
27.53
27.53
27.53
27.53
27.53
27.55
27.55
27.55
27.55
27.53
27.53
27.53
27.53
27.51
27.51
27.51
27.51
27.53
27.53
27.53
27.53
27.53
27.53
27.53
27.53
27.53
27.53
27.53
27.53
27.51
27.51
27.51
27.51
27.55
27.55
27.55
27.55
27.53
27.53
27.53
27.53
27.49
27.49
27.49
27.49
27.45
27.45
27.45
27.45
27.47
27.47
27.47
27.47
27.47
27.47
27.47
27.47
27.47
27.47
27.47
27.47
27.49
27.49
27.49
27.49
27.49
27.49
27.49
27.49
27.51
27.51
27.51
27.51
27.49
27.49
27.49
27.49
27.47
27.47
27.47
27.47
27.57
27.57
27.57
27.57
27.49
27.49
27.49
27.49
27.49
27.49
27.49
27.49
27.39
27.39
27.39
27.39
27.39
27.39
27.39
27.39
27.39
27.39
27.39
27.39
27.41
27.41
27.41
27.41
27.47
27.47
27.47
27.47
27.51
27.51
27.51
27.51
27.49
27.49
27.49
27.49
27.55
27.55
27.55
27.55
27.53
27.53
27.53
27.53
27.51
27.51
27.51
27.51
27.51
27.51
27.51
27.51
27.49
27.49
27.49
27.49
27.51
27.51
27.51
27.51
27.51
27.51
27.51
27.51
27.53
27.53
27.53
27.53
27.55
27.55
27.55
27.55
27.51
27.51
27.51
27.51
27.51
27.51
27.51
27.51
27.51
27.51
27.51
27.51
27.49
27.49
27.49
27.49
27.49
27.49
27.49
27.49
27.57
27.57
27.57
27.57
27.57
27.57
27.57
27.57
27.55
27.55
27.55
27.55
27.57
27.57
27.57
27.57
27.57
27.57
27.57
27.57
27.53
27.53
27.53
27.53
27.53
27.53
27.53
27.53
27.59
27.59
27.59
27.59
27.53
27.53
27.53
27.53
27.53
27.53
27.53
27.53
27.63
27.63
27.63
27.63
27.59
27.59
27.59
27.59
27.59
27.59
27.59
27.59
27.59
27.59
27.59
27.59
27.57
27.57
27.57
27.57
27.59
27.59
27.59
27.59
27.59
27.59
27.59
27.59
27.55
27.55
27.55
27.55
27.55
27.55
27.55
27.55
27.55
27.55
27.55
27.55
27.57
27.57
27.57
27.57
27.57
27.57
27.57
27.57
27.59
27.59
27.59
27.59
27.57
27.57
27.57
27.57
27.57
27.57
27.57
27.57
27.57
27.57
27.57
27.57
27.57
27.57
27.57
27.57
27.55
27.55
27.55
27.55
27.59
27.59
27.59
27.59
27.57
27.57
27.57
27.57
27.53
27.53
27.53
27.53
27.59
27.59
27.59
27.59
27.57
27.57
27.57
27.57
27.61
27.61
27.61
27.61
27.57
27.57
27.57
27.57
27.55
27.55
27.55
27.55
27.59
27.59
27.59
27.59
27.57
27.57
27.57
27.57
27.57
27.57
27.57
27.57
27.57
27.57
27.57
27.57
27.59
27.59
27.59
27.59
27.59
27.59
27.59
27.59
27.59
27.59
27.59
27.59
27.53
27.53
27.53
27.53
27.57
27.57
27.57
27.57
27.57
27.57
27.57
27.57
27.55
27.55
27.55
27.55
27.53
27.53
27.53
27.53
27.51
27.51
27.51
27.51
27.53
27.53
27.53
27.53
27.51
27.51
27.51
27.51
27.51
27.51
27.51
27.51
27.53
27.53
27.53
27.53
27.49
27.49
27.49
27.49
27.51
27.51
27.51
27.51
27.53
27.53
27.53
27.53
27.53
27.53
27.53
27.53
27.55
27.55
27.55
27.55
27.53
27.53
27.53
27.53
27.53
27.53
27.53
27.53
27.57
27.57
27.57
27.57
27.49
27.49
27.49
27.49
27.47
27.47
27.47
27.47
27.51
27.51
27.51
27.51
27.51
27.51
27.51
27.51
27.51
27.51
27.51
27.51
27.51
27.51
27.51
27.51
27.57
27.57
27.57
27.57
27.55
27.55
27.55
27.55
27.55
27.55
27.55
27.55
27.55
27.55
27.55
27.55
27.57
27.57
27.57
27.57
27.55
27.55
27.55
27.55
27.47
27.47
27.47
27.47
27.49
27.49
27.49
27.49
27.49
27.49
27.49
27.49
27.49
27.49
27.49
27.49
27.45
27.45
27.45
27.45
27.43
27.43
27.43
27.43
27.41
27.41
27.41
27.41
27.43
27.43
27.43
27.43
27.45
27.45
27.45
27.45
27.45
27.45
27.45
27.45
27.47
27.47
27.47
27.47
27.49
27.49
27.49
27.49
27.51
27.51
27.51
27.51
27.55
27.55
27.55
27.55
27.53
27.53
27.53
27.53
27.51
27.51
27.51
27.51
27.57
27.57
27.57
27.57
27.45
27.45
27.45
27.45
27.45
27.45
27.45
27.45
27.43
27.43
27.43
27.43
27.49
27.49
27.49
27.49
27.47
27.47
27.47
27.47
27.47
27.47
27.47
27.47
27.45
27.45
27.45
27.45
27.43
27.43
27.43
27.43
27.43
27.43
27.43
27.43
27.45
27.45
27.45
27.45
27.43
27.43
27.43
27.43
27.41
27.41
27.41
27.41
27.41
27.41
27.41
27.41
27.41
27.41
27.41
27.41
27.39
27.39
27.39
27.39
27.39
27.39
27.39
27.39
27.39
27.39
27.39
27.39
27.39
27.39
27.39
27.39
27.37
27.37
27.37
27.37
27.39
27.39
27.39
27.39
27.41
27.41
27.41
27.41
27.39
27.39
27.39
27.39
27.39
27.39
27.39
27.39
27.33
27.33
27.33
27.33
27.33
27.33
27.33
27.33
27.33
27.33
27.33
27.33
27.41
27.41
27.41
27.41
27.41
27.41
27.41
27.41
27.41
27.41
27.41
27.41
27.37
27.37
27.37
27.37
27.39
27.39
27.39
27.39
27.39
27.39
27.39
27.39
27.41
27.41
27.41
27.41
27.39
27.39
27.39
27.39
27.37
27.37
27.37
27.37
27.37
27.37
27.37
27.37
27.37
27.37
27.37
27.37
27.39
27.39
27.39
27.39
27.37
27.37
27.37
27.37
27.37
27.37
27.37
27.37
27.41
27.41
27.41
27.41
27.45
27.45
27.45
27.45
27.45
27.45
27.45
27.45
27.45
27.45
27.45
27.45
27.47
27.47
27.47
27.47
27.47
27.47
27.47
27.47
27.41
27.41
27.41
27.41
27.45
27.45
27.45
27.45
27.47
27.47
27.47
27.47
27.45
27.45
27.45
27.45
27.49
27.49
27.49
27.49
27.45
27.45
27.45
27.45
27.47
27.47
27.47
27.47
27.49
27.49
27.49
27.49
27.49
27.49
27.49
27.49
27.49
27.49
27.49
27.49
27.49
27.49
27.49
27.49
27.51
27.51
27.51
27.51
27.49
27.49
27.49
27.49
27.47
27.47
27.47
27.47
27.53
27.53
27.53
27.53
27.45
27.45
27.45
27.45
27.45
27.45
27.45
27.45
27.43
27.43
27.43
27.43
27.41
27.41
27.41
27.41
27.43
27.43
27.43
27.43
27.43
27.43
27.43
27.43
27.45
27.45
27.45
27.45
27.49
27.49
27.49
27.49
27.45
27.45
27.45
27.45
27.47
27.47
27.47
27.47
27.45
27.45
27.45
27.45
27.43
27.43
27.43
27.43
27.45
27.45
27.45
27.45
27.47
27.47
27.47
27.47
27.47
27.47
27.47
27.47
27.49
27.49
27.49
27.49
27.49
27.49
27.49
27.49
27.51
27.51
27.51
27.51
27.51
27.51
27.51
27.51
27.49
27.49
27.49
27.49
27.47
27.47
27.47
27.47
27.47
27.47
27.47
27.47
27.47
27.47
27.47
27.47
27.45
27.45
27.45
27.45
27.43
27.43
27.43
27.43
27.51
27.51
27.51
27.51
27.49
27.49
27.49
27.49
27.49
27.49
27.49
27.49
27.43
27.43
27.43
27.43
27.43
27.43
27.43
27.43
27.45
27.45
27.45
27.45
27.43
27.43
27.43
27.43
27.45
27.45
27.45
27.45
27.43
27.43
27.43
27.43
27.45
27.45
27.45
27.45
27.45
27.45
27.45
27.45
27.45
27.45
27.45
27.45
27.47
27.47
27.47
27.47
27.51
27.51
27.51
27.51
27.53
27.53
27.53
27.53
27.55
27.55
27.55
27.55
27.57
27.57
27.57
27.57
27.55
27.55
27.55
27.55
27.57
27.57
27.57
27.57
27.53
27.53
27.53
27.53
27.53
27.53
27.53
27.53
27.51
27.51
27.51
27.51
27.51
27.51
27.51
27.51
27.57
27.57
27.57
27.57
27.49
27.49
27.49
27.49
27.49
27.49
27.49
27.49
27.53
27.53
27.53
27.53
27.53
27.53
27.53
27.53
27.53
27.53
27.53
27.53
27.53
27.53
27.53
27.53
27.55
27.55
27.55
27.55
27.57
27.57
27.57
27.57
27.55
27.55
27.55
27.55
27.57
27.57
27.57
27.57
27.55
27.55
27.55
27.55
27.57
27.57
27.57
27.57
27.49
27.49
27.49
27.49
27.51
27.51
27.51
27.51
27.49
27.49
27.49
27.49
27.49
27.49
27.49
27.49
27.51
27.51
27.51
27.51
27.47
27.47
27.47
27.47
27.47
27.47
27.47
27.47
27.45
27.45
27.45
27.45
27.43
27.43
27.43
27.43
27.47
27.47
27.47
27.47
27.51
27.51
27.51
27.51
27.49
27.49
27.49
27.49
27.49
27.49
27.49
27.49
27.53
27.53
27.53
27.53
27.59
27.59
27.59
27.59
27.59
27.59
27.59
27.59
27.61
27.61
27.61
27.61
27.49
27.49
27.49
27.49
27.53
27.53
27.53
27.53
27.55
27.55
27.55
27.55
27.55
27.55
27.55
27.55
27.53
27.53
27.53
27.53
27.53
27.53
27.53
27.53
27.47
27.47
27.47
27.47
27.49
27.49
27.49
27.49
27.51
27.51
27.51
27.51
27.53
27.53
27.53
27.53
27.53
27.53
27.53
27.53
27.53
27.53
27.53
27.53
27.55
27.55
27.55
27.55
27.55
27.55
27.55
27.55
27.55
27.55
27.55
27.55
27.57
27.57
27.57
27.57
27.55
27.55
27.55
27.55
27.51
27.51
27.51
27.51
27.51
27.51
27.51
27.51
27.51
27.51
27.51
27.51
27.53
27.53
27.53
27.53
27.53
27.53
27.53
27.53
27.53
27.53
27.53
27.53
27.57
27.57
27.57
27.57
27.57
27.57
27.57
27.57
27.59
27.59
27.59
27.59
27.63
27.63
27.63
27.63
27.59
27.59
27.59
27.59
27.57
27.57
27.57
27.57
27.57
27.57
27.57
27.57
27.55
27.55
27.55
27.55
27.63
27.63
27.63
27.63
27.59
27.59
27.59
27.59
27.59
27.59
27.59
27.59
27.55
27.55
27.55
27.55
27.57
27.57
27.57
27.57
27.53
27.53
27.53
27.53
27.55
27.55
27.55
27.55
27.63
27.63
27.63
27.63
27.67
27.67
27.67
27.67
27.67
27.67
27.67
27.67
27.61
27.61
27.61
27.61
27.61
27.61
27.61
27.61
27.63
27.63
27.63
27.63
27.63
27.63
27.63
27.63
27.61
27.61
27.61
27.61
27.63
27.63
27.63
27.63
27.67
27.67
27.67
27.67
27.59
27.59
27.59
27.59
27.61
27.61
27.61
27.61
27.55
27.55
27.55
27.55
27.55
27.55
27.55
27.55
27.59
27.59
27.59
27.59
27.57
27.57
27.57
27.57
27.61
27.61
27.61
27.61
27.65
27.65
27.65
27.65
27.67
27.67
27.67
27.67
27.65
27.65
27.65
27.65
27.65
27.65
27.65
27.65
27.71
27.71
27.71
27.71
27.67
27.67
27.67
27.67
27.65
27.65
27.65
27.65
27.67
27.67
27.67
27.67
27.59
27.59
27.59
27.59
27.57
27.57
27.57
27.57
27.59
27.59
27.59
27.59
27.61
27.61
27.61
27.61
27.63
27.63
27.63
27.63
27.63
27.63
27.63
27.63
27.65
27.65
27.65
27.65
27.63
27.63
27.63
27.63
27.61
27.61
27.61
27.61
27.61
27.61
27.61
27.61
27.61
27.61
27.61
27.61
27.65
27.65
27.65
27.65
27.63
27.63
27.63
27.63
27.63
27.63
27.63
27.63
27.67
27.67
27.67
27.67
27.65
27.65
27.65
27.65
27.63
27.63
27.63
27.63
27.65
27.65
27.65
27.65
27.65
27.65
27.65
27.65
27.63
27.63
27.63
27.63
27.63
27.63
27.63
27.63
27.65
27.65
27.65
27.65
27.63
27.63
27.63
27.63
27.63
27.63
27.63
27.63
27.65
27.65
27.65
27.65
27.65
27.65
27.65
27.65
27.63
27.63
27.63
27.63
27.65
27.65
27.65
27.65
27.63
27.63
27.63
27.63
27.67
27.67
27.67
27.67
27.65
27.65
27.65
27.65
27.65
27.65
27.65
27.65
27.67
27.67
27.67
27.67
27.67
27.67
27.67
27.67
27.65
27.65
27.65
27.65
27.65
27.65
27.65
27.65
27.67
27.67
27.67
27.67
27.63
27.63
27.63
27.63
27.61
27.61
27.61
27.61
27.59
27.59
27.59
27.59
27.63
27.63
27.63
27.63
27.63
27.63
27.63
27.63
27.61
27.61
27.61
27.61
27.61
27.61
27.61
27.61
27.61
27.61
27.61
27.61
27.61
27.61
27.61
27.61
27.59
27.59
27.59
27.59
27.59
27.59
27.59
27.59
27.63
27.63
27.63
27.63
27.59
27.59
27.59
27.59
27.59
27.59
27.59
27.59
27.61
27.61
27.61
27.61
27.61
27.61
27.61
27.61
27.61
27.61
27.61
27.61
27.61
27.61
27.61
27.61
27.61
27.61
27.61
27.61
27.61
27.61
27.61
27.61
27.61
27.61
27.61
27.61
27.63
27.63
27.63
27.63
27.63
27.63
27.63
27.63
27.61
27.61
27.61
27.61
27.61
27.61
27.61
27.61
27.61
27.61
27.61
27.61
27.63
27.63
27.63
27.63
27.63
27.63
27.63
27.63
27.63
27.63
27.63
27.63
27.61
27.61
27.61
27.61
27.63
27.63
27.63
27.63
27.65
27.65
27.65
27.65
27.65
27.65
27.65
27.65
27.65
27.65
27.65
27.65
27.63
27.63
27.63
27.63
27.61
27.61
27.61
27.61
27.63
27.63
27.63
27.63
27.63
27.63
27.63
27.63
27.65
27.65
27.65
27.65
27.65
27.65
27.65
27.65
27.67
27.67
27.67
27.67
27.65
27.65
27.65
27.65
27.67
27.67
27.67
27.67
27.65
27.65
27.65
27.65
27.67
27.67
27.67
27.67
27.69
27.69
27.69
27.69
27.69
27.69
27.69
27.69
27.69
27.69
27.69
27.69
27.69
27.69
27.69
27.69
27.69
27.69
27.69
27.69
27.71
27.71
27.71
27.71
27.73
27.73
27.73
27.73
27.75
27.75
27.75
27.75
27.75
27.75
27.75
27.75
27.73
27.73
27.73
27.73
27.73
27.73
27.73
27.73
27.75
27.75
27.75
27.75
27.75
27.75
27.75
27.75
27.75
27.75
27.75
27.75
27.73
27.73
27.73
27.73
27.77
27.77
27.77
27.77
27.77
27.77
27.77
27.77
27.79
27.79
27.79
27.79
27.83
27.83
27.83
27.83
27.83
27.83
27.83
27.83
27.83
27.83
27.83
27.83
27.83
27.83
27.83
27.83
27.85
27.85
27.85
27.85
27.85
27.85
27.85
27.85
27.85
27.85
27.85
27.85
27.85
27.85
27.85
27.85
27.85
27.85
27.85
27.85
27.85
27.85
27.85
27.85
27.85
27.85
27.85
27.85
27.85
27.85
27.85
27.85
27.85
27.85
27.85
27.85
27.89
27.89
27.89
27.89
27.87
27.87
27.87
27.87
27.87
27.87
27.87
27.87
27.87
27.87
27.87
27.87
27.87
27.87
27.87
27.87
27.87
27.87
27.87
27.87
27.87
27.87
27.87
27.87
27.87
27.87
27.87
27.87
27.87
27.87
27.87
27.87
27.85
27.85
27.85
27.85
27.83
27.83
27.83
27.83
27.87
27.87
27.87
27.87
27.87
27.87
27.87
27.87
27.83
27.83
27.83
27.83
27.83
27.83
27.83
27.83
27.85
27.85
27.85
27.85
27.83
27.83
27.83
27.83
27.85
27.85
27.85
27.85
27.85
27.85
27.85
27.85
27.85
27.85
27.85
27.85
27.85
27.85
27.85
27.85
27.85
27.85
27.85
27.85
27.83
27.83
27.83
27.83
27.83
27.83
27.83
27.83
27.85
27.85
27.85
27.85
27.83
27.83
27.83
27.83
27.81
27.81
27.81
27.81
27.83
27.83
27.83
27.83
27.77
27.77
27.77
27.77
27.79
27.79
27.79
27.79
27.75
27.75
27.75
27.75
27.77
27.77
27.77
27.77
27.81
27.81
27.81
27.81
27.81
27.81
27.81
27.81
27.79
27.79
27.79
27.79
27.79
27.79
27.79
27.79
27.77
27.77
27.77
27.77
27.83
27.83
27.83
27.83
27.81
27.81
27.81
27.81
27.83
27.83
27.83
27.83
27.83
27.83
27.83
27.83
27.81
27.81
27.81
27.81
27.81
27.81
27.81
27.81
27.79
27.79
27.79
27.79
27.81
27.81
27.81
27.81
27.81
27.81
27.81
27.81
27.77
27.77
27.77
27.77
27.77
27.77
27.77
27.77
27.73
27.73
27.73
27.73
27.75
27.75
27.75
27.75
27.75
27.75
27.75
27.75
27.75
27.75
27.75
27.75
27.73
27.73
27.73
27.73
27.77
27.77
27.77
27.77
27.79
27.79
27.79
27.79
27.73
27.73
27.73
27.73
27.77
27.77
27.77
27.77
27.71
27.71
27.71
27.71
27.53
27.53
27.53
27.53
27.55
27.55
27.55
27.55
27.57
27.57
27.57
27.57
27.61
27.61
27.61
27.61
27.65
27.65
27.65
27.65
27.73
27.73
27.73
27.73
27.69
27.69
27.69
27.69
27.71
27.71
27.71
27.71
27.75
27.75
27.75
27.75
27.73
27.73
27.73
27.73
27.75
27.75
27.75
27.75
27.73
27.73
27.73
27.73
27.69
27.69
27.69
27.69
27.73
27.73
27.73
27.73
27.71
27.71
27.71
27.71
27.69
27.69
27.69
27.69
27.71
27.71
27.71
27.71
27.69
27.69
27.69
27.69
27.67
27.67
27.67
27.67
27.69
27.69
27.69
27.69
27.67
27.67
27.67
27.67
27.65
27.65
27.65
27.65
27.65
27.65
27.65
27.65
27.65
27.65
27.65
27.65
27.63
27.63
27.63
27.63
27.67
27.67
27.67
27.67
27.65
27.65
27.65
27.65
27.67
27.67
27.67
27.67
27.65
27.65
27.65
27.65
27.63
27.63
27.63
27.63
27.63
27.63
27.63
27.63
27.63
27.63
27.63
27.63
27.63
27.63
27.63
27.63
27.63
27.63
27.63
27.63
27.61
27.61
27.61
27.61
27.63
27.63
27.63
27.63
27.63
27.63
27.63
27.63
27.61
27.61
27.61
27.61
27.63
27.63
27.63
27.63
27.61
27.61
27.61
27.61
27.59
27.59
27.59
27.59
27.61
27.61
27.61
27.61
27.65
27.65
27.65
27.65
27.57
27.57
27.57
27.57
27.57
27.57
27.57
27.57
27.59
27.59
27.59
27.59
27.61
27.61
27.61
27.61
27.59
27.59
27.59
27.59
27.59
27.59
27.59
27.59
27.59
27.59
27.59
27.59
27.57
27.57
27.57
27.57
27.59
27.59
27.59
27.59
27.57
27.57
27.57
27.57
27.57
27.57
27.57
27.57
27.57
27.57
27.57
27.57
27.57
27.57
27.57
27.57
27.61
27.61
27.61
27.61
27.59
27.59
27.59
27.59
27.57
27.57
27.57
27.57
27.43
27.43
27.43
27.43
27.15
27.15
27.15
27.15
27.33
27.33
27.33
27.33
27.21
27.21
27.21
27.21
27.27
27.27
27.27
27.27
27.23
27.23
27.23
27.23
27.25
27.25
27.25
27.25
27.31
27.31
27.31
27.31
27.33
27.33
27.33
27.33
27.29
27.29
27.29
27.29
27.27
27.27
27.27
27.27
27.25
27.25
27.25
27.25
27.23
27.23
27.23
27.23
27.15
27.15
27.15
27.15
27.09
27.09
27.09
27.09
27.17
27.17
27.17
27.17
27.11
27.11
27.11
27.11
27.17
27.17
27.17
27.17
27.15
27.15
27.15
27.15
27.15
27.15
27.15
27.15
27.11
27.11
27.11
27.11
27.09
27.09
27.09
27.09
27.07
27.07
27.07
27.07
27.03
27.03
27.03
27.03
27.01
27.01
27.01
27.01
27.01
27.01
27.01
27.01
26.95
26.95
26.95
26.95
27.01
27.01
27.01
27.01
27.03
27.03
27.03
27.03
27.09
27.09
27.09
27.09
27.13
27.13
27.13
27.13
27.15
27.15
27.15
27.15
27.11
27.11
27.11
27.11
27.19
27.19
27.19
27.19
27.13
27.13
27.13
27.13
27.09
27.09
27.09
27.09
27.07
27.07
27.07
27.07
27.05
27.05
27.05
27.05
27.03
27.03
27.03
27.03
27.01
27.01
27.01
27.01
27.01
27.01
27.01
27.01
26.97
26.97
26.97
26.97
27.01
27.01
27.01
27.01
27.01
27.01
27.01
27.01
27.03
27.03
27.03
27.03
27.01
27.01
27.01
27.01
27.05
27.05
27.05
27.05
27.11
27.11
27.11
27.11
27.15
27.15
27.15
27.15
27.07
27.07
27.07
27.07
27.03
27.03
27.03
27.03
27.05
27.05
27.05
27.05
27.05
27.05
27.05
27.05
27.03
27.03
27.03
27.03
27.05
27.05
27.05
27.05
27.03
27.03
27.03
27.03
27.01
27.01
27.01
27.01
26.99
26.99
26.99
26.99
27.11
27.11
27.11
27.11
27.07
27.07
27.07
27.07
27.01
27.01
27.01
27.01
27.05
27.05
27.05
27.05
27.05
27.05
27.05
27.05
27.07
27.07
27.07
27.07
27.07
27.07
27.07
27.07
27.05
27.05
27.05
27.05
27.07
27.07
27.07
27.07
27.07
27.07
27.07
27.07
27.05
27.05
27.05
27.05
27.03
27.03
27.03
27.03
27.07
27.07
27.07
27.07
27.07
27.07
27.07
27.07
27.09
27.09
27.09
27.09
27.03
27.03
27.03
27.03
27.07
27.07
27.07
27.07
27.01
27.01
27.01
27.01
27.03
27.03
27.03
27.03
26.95
26.95
26.95
26.95
27.01
27.01
27.01
27.01
27.01
27.01
27.01
27.01
27.01
27.01
27.01
27.01
26.97
26.97
26.97
26.97
27.01
27.01
27.01
27.01
27.07
27.07
27.07
27.07
27.09
27.09
27.09
27.09
27.03
27.03
27.03
27.03
27.05
27.05
27.05
27.05
27.05
27.05
27.05
27.05
27.03
27.03
27.03
27.03
26.99
26.99
26.99
26.99
26.99
26.99
26.99
26.99
26.97
26.97
26.97
26.97
26.91
26.91
26.91
26.91
26.93
26.93
26.93
26.93
26.89
26.89
26.89
26.89
26.95
26.95
26.95
26.95
26.99
26.99
26.99
26.99
27.01
27.01
27.01
27.01
26.99
26.99
26.99
26.99
26.97
26.97
26.97
26.97
27.03
27.03
27.03
27.03
26.95
26.95
26.95
26.95
26.95
26.95
26.95
26.95
26.97
26.97
26.97
26.97
27.01
27.01
27.01
27.01
26.99
26.99
26.99
26.99
26.99
26.99
26.99
26.99
26.99
26.99
26.99
26.99
26.97
26.97
26.97
26.97
26.97
26.97
26.97
26.97
26.97
26.97
26.97
26.97
26.95
26.95
26.95
26.95
26.97
26.97
26.97
26.97
26.89
26.89
26.89
26.89
26.87
26.87
26.87
26.87
26.87
26.87
26.87
26.87
26.87
26.87
26.87
26.87
26.83
26.83
26.83
26.83
26.83
26.83
26.83
26.83
26.85
26.85
26.85
26.85
26.91
26.91
26.91
26.91
26.95
26.95
26.95
26.95
26.91
26.91
26.91
26.91
26.93
26.93
26.93
26.93
26.93
26.93
26.93
26.93
26.93
26.93
26.93
26.93
26.89
26.89
26.89
26.89
26.89
26.89
26.89
26.89
26.87
26.87
26.87
26.87
26.83
26.83
26.83
26.83
26.85
26.85
26.85
26.85
26.91
26.91
26.91
26.91
26.89
26.89
26.89
26.89
26.85
26.85
26.85
26.85
26.87
26.87
26.87
26.87
26.87
26.87
26.87
26.87
26.83
26.83
26.83
26.83
26.81
26.81
26.81
26.81
26.81
26.81
26.81
26.81
26.81
26.81
26.81
26.81
26.79
26.79
26.79
26.79
26.81
26.81
26.81
26.81
26.79
26.79
26.79
26.79
26.81
26.81
26.81
26.81
26.77
26.77
26.77
26.77
26.79
26.79
26.79
26.79
26.77
26.77
26.77
26.77
26.79
26.79
26.79
26.79
26.79
26.79
26.79
26.79
26.81
26.81
26.81
26.81
26.83
26.83
26.83
26.83
26.81
26.81
26.81
26.81
26.77
26.77
26.77
26.77
26.73
26.73
26.73
26.73
26.73
26.73
26.73
26.73
26.75
26.75
26.75
26.75
26.79
26.79
26.79
26.79
26.83
26.83
26.83
26.83
26.79
26.79
26.79
26.79
26.79
26.79
26.79
26.79
26.73
26.73
26.73
26.73
26.75
26.75
26.75
26.75
26.75
26.75
26.75
26.75
26.75
26.75
26.75
26.75
26.73
26.73
26.73
26.73
26.71
26.71
26.71
26.71
26.67
26.67
26.67
26.67
26.67
26.67
26.67
26.67
26.71
26.71
26.71
26.71
26.75
26.75
26.75
26.75
26.73
26.73
26.73
26.73
26.73
26.73
26.73
26.73
26.79
26.79
26.79
26.79
26.81
26.81
26.81
26.81
26.83
26.83
26.83
26.83
26.83
26.83
26.83
26.83
26.85
26.85
26.85
26.85
26.79
26.79
26.79
26.79
26.79
26.79
26.79
26.79
26.79
26.79
26.79
26.79
26.75
26.75
26.75
26.75
26.75
26.75
26.75
26.75
26.71
26.71
26.71
26.71
26.71
26.71
26.71
26.71
26.71
26.71
26.71
26.71
26.71
26.71
26.71
26.71
26.71
26.71
26.71
26.71
26.71
26.71
26.71
26.71
26.73
26.73
26.73
26.73
26.79
26.79
26.79
26.79
26.85
26.85
26.85
26.85
26.79
26.79
26.79
26.79
26.81
26.81
26.81
26.81
26.79
26.79
26.79
26.79
26.77
26.77
26.77
26.77
26.75
26.75
26.75
26.75
26.77
26.77
26.77
26.77
26.79
26.79
26.79
26.79
26.83
26.83
26.83
26.83
26.81
26.81
26.81
26.81
26.83
26.83
26.83
26.83
26.79
26.79
26.79
26.79
26.77
26.77
26.77
26.77
26.81
26.81
26.81
26.81
26.81
26.81
26.81
26.81
26.81
26.81
26.81
26.81
26.77
26.77
26.77
26.77
26.77
26.77
26.77
26.77
26.79
26.79
26.79
26.79
26.75
26.75
26.75
26.75
26.73
26.73
26.73
26.73
26.77
26.77
26.77
26.77
26.77
26.77
26.77
26.77
26.79
26.79
26.79
26.79
26.75
26.75
26.75
26.75
26.73
26.73
26.73
26.73
26.75
26.75
26.75
26.75
26.79
26.79
26.79
26.79
26.85
26.85
26.85
26.85
26.83
26.83
26.83
26.83
26.83
26.83
26.83
26.83
26.77
26.77
26.77
26.77
26.79
26.79
26.79
26.79
26.79
26.79
26.79
26.79
26.75
26.75
26.75
26.75
26.73
26.73
26.73
26.73
26.73
26.73
26.73
26.73
26.69
26.69
26.69
26.69
26.67
26.67
26.67
26.67
26.71
26.71
26.71
26.71
26.77
26.77
26.77
26.77
26.79
26.79
26.79
26.79
26.75
26.75
26.75
26.75
26.77
26.77
26.77
26.77
26.77
26.77
26.77
26.77
26.75
26.75
26.75
26.75
26.75
26.75
26.75
26.75
26.75
26.75
26.75
26.75
26.77
26.77
26.77
26.77
26.79
26.79
26.79
26.79
26.77
26.77
26.77
26.77
26.79
26.79
26.79
26.79
26.81
26.81
26.81
26.81
26.81
26.81
26.81
26.81
26.77
26.77
26.77
26.77
26.73
26.73
26.73
26.73
26.77
26.77
26.77
26.77
26.75
26.75
26.75
26.75
26.71
26.71
26.71
26.71
26.67
26.67
26.67
26.67
26.65
26.65
26.65
26.65
26.67
26.67
26.67
26.67
26.73
26.73
26.73
26.73
26.79
26.79
26.79
26.79
26.75
26.75
26.75
26.75
26.81
26.81
26.81
26.81
26.81
26.81
26.81
26.81
26.81
26.81
26.81
26.81
26.79
26.79
26.79
26.79
26.81
26.81
26.81
26.81
26.79
26.79
26.79
26.79
26.81
26.81
26.81
26.81
26.75
26.75
26.75
26.75
26.75
26.75
26.75
26.75
26.71
26.71
26.71
26.71
26.71
26.71
26.71
26.71
26.73
26.73
26.73
26.73
26.79
26.79
26.79
26.79
26.81
26.81
26.81
26.81
26.79
26.79
26.79
26.79
26.79
26.79
26.79
26.79
26.77
26.77
26.77
26.77
26.77
26.77
26.77
26.77
26.77
26.77
26.77
26.77
26.79
26.79
26.79
26.79
26.79
26.79
26.79
26.79
26.83
26.83
26.83
26.83
26.87
26.87
26.87
26.87
26.85
26.85
26.85
26.85
26.89
26.89
26.89
26.89
26.87
26.87
26.87
26.87
26.83
26.83
26.83
26.83
26.87
26.87
26.87
26.87
26.83
26.83
26.83
26.83
26.87
26.87
26.87
26.87
26.89
26.89
26.89
26.89
26.85
26.85
26.85
26.85
26.87
26.87
26.87
26.87
26.87
26.87
26.87
26.87
26.87
26.87
26.87
26.87
26.85
26.85
26.85
26.85
26.85
26.85
26.85
26.85
26.87
26.87
26.87
26.87
26.83
26.83
26.83
26.83
26.85
26.85
26.85
26.85
26.83
26.83
26.83
26.83
26.75
26.75
26.75
26.75
26.71
26.71
26.71
26.71
26.69
26.69
26.69
26.69
26.69
26.69
26.69
26.69
26.73
26.73
26.73
26.73
26.71
26.71
26.71
26.71
26.71
26.71
26.71
26.71
26.73
26.73
26.73
26.73
26.71
26.71
26.71
26.71
26.71
26.71
26.71
26.71
26.71
26.71
26.71
26.71
26.77
26.77
26.77
26.77
26.79
26.79
26.79
26.79
26.77
26.77
26.77
26.77
26.79
26.79
26.79
26.79
26.81
26.81
26.81
26.81
26.83
26.83
26.83
26.83
26.83
26.83
26.83
26.83
26.81
26.81
26.81
26.81
26.81
26.81
26.81
26.81
26.81
26.81
26.81
26.81
26.81
26.81
26.81
26.81
26.79
26.79
26.79
26.79
26.83
26.83
26.83
26.83
26.85
26.85
26.85
26.85
26.81
26.81
26.81
26.81
26.83
26.83
26.83
26.83
26.83
26.83
26.83
26.83
26.81
26.81
26.81
26.81
26.81
26.81
26.81
26.81
26.77
26.77
26.77
26.77
26.79
26.79
26.79
26.79
26.81
26.81
26.81
26.81
26.83
26.83
26.83
26.83
26.85
26.85
26.85
26.85
26.83
26.83
26.83
26.83
26.85
26.85
26.85
26.85
26.87
26.87
26.87
26.87
26.87
26.87
26.87
26.87
26.83
26.83
26.83
26.83
26.85
26.85
26.85
26.85
26.81
26.81
26.81
26.81
26.81
26.81
26.81
26.81
26.81
26.81
26.81
26.81
26.79
26.79
26.79
26.79
26.85
26.85
26.85
26.85
26.89
26.89
26.89
26.89
26.85
26.85
26.85
26.85
26.89
26.89
26.89
26.89
26.87
26.87
26.87
26.87
26.89
26.89
26.89
26.89
26.87
26.87
26.87
26.87
26.85
26.85
26.85
26.85
26.87
26.87
26.87
26.87
26.87
26.87
26.87
26.87
26.89
26.89
26.89
26.89
26.89
26.89
26.89
26.89
26.91
26.91
26.91
26.91
26.91
26.91
26.91
26.91
26.85
26.85
26.85
26.85
26.85
26.85
26.85
26.85
26.85
26.85
26.85
26.85
26.85
26.85
26.85
26.85
26.85
26.85
26.85
26.85
26.87
26.87
26.87
26.87
26.85
26.85
26.85
26.85
26.85
26.85
26.85
26.85
26.89
26.89
26.89
26.89
26.91
26.91
26.91
26.91
26.91
26.91
26.91
26.91
26.89
26.89
26.89
26.89
26.89
26.89
26.89
26.89
26.89
26.89
26.89
26.89
26.89
26.89
26.89
26.89
26.89
26.89
26.89
26.89
26.93
26.93
26.93
26.93
26.95
26.95
26.95
26.95
26.91
26.91
26.91
26.91
26.93
26.93
26.93
26.93
26.91
26.91
26.91
26.91
26.95
26.95
26.95
26.95
26.97
26.97
26.97
26.97
26.95
26.95
26.95
26.95
26.95
26.95
26.95
26.95
26.91
26.91
26.91
26.91
26.93
26.93
26.93
26.93
26.97
26.97
26.97
26.97
26.93
26.93
26.93
26.93
26.97
26.97
26.97
26.97
26.97
26.97
26.97
26.97
26.95
26.95
26.95
26.95
27.01
27.01
27.01
27.01
26.99
26.99
26.99
26.99
26.95
26.95
26.95
26.95
26.97
26.97
26.97
26.97
26.97
26.97
26.97
26.97
26.99
26.99
26.99
26.99
26.99
26.99
26.99
26.99
26.97
26.97
26.97
26.97
26.99
26.99
26.99
26.99
27.01
27.01
27.01
27.01
27.01
27.01
27.01
27.01
26.99
26.99
26.99
26.99
26.97
26.97
26.97
26.97
26.99
26.99
26.99
26.99
27.03
27.03
27.03
27.03
27.03
27.03
27.03
27.03
27.05
27.05
27.05
27.05
27.05
27.05
27.05
27.05
27.05
27.05
27.05
27.05
27.01
27.01
27.01
27.01
27.07
27.07
27.07
27.07
27.09
27.09
27.09
27.09
27.03
27.03
27.03
27.03
27.05
27.05
27.05
27.05
27.05
27.05
27.05
27.05
27.05
27.05
27.05
27.05
27.05
27.05
27.05
27.05
27.05
27.05
27.05
27.05
27.03
27.03
27.03
27.03
27.03
27.03
27.03
27.03
27.01
27.01
27.01
27.01
27.03
27.03
27.03
27.03
27.01
27.01
27.01
27.01
27.03
27.03
27.03
27.03
27.01
27.01
27.01
27.01
27.01
27.01
27.01
27.01
27.03
27.03
27.03
27.03
27.05
27.05
27.05
27.05
27.07
27.07
27.07
27.07
27.03
27.03
27.03
27.03
27.07
27.07
27.07
27.07
27.07
27.07
27.07
27.07
27.09
27.09
27.09
27.09
27.09
27.09
27.09
27.09
27.09
27.09
27.09
27.09
27.11
27.11
27.11
27.11
27.11
27.11
27.11
27.11
27.09
27.09
27.09
27.09
27.11
27.11
27.11
27.11
27.13
27.13
27.13
27.13
27.13
27.13
27.13
27.13
27.13
27.13
27.13
27.13
27.13
27.13
27.13
27.13
27.11
27.11
27.11
27.11
27.11
27.11
27.11
27.11
27.11
27.11
27.11
27.11
27.13
27.13
27.13
27.13
27.17
27.17
27.17
27.17
27.13
27.13
27.13
27.13
27.17
27.17
27.17
27.17
27.19
27.19
27.19
27.19
27.19
27.19
27.19
27.19
27.19
27.19
27.19
27.19
27.19
27.19
27.19
27.19
27.19
27.19
27.19
27.19
27.21
27.21
27.21
27.21
27.21
27.21
27.21
27.21
27.23
27.23
27.23
27.23
27.23
27.23
27.23
27.23
27.19
27.19
27.19
27.19
27.19
27.19
27.19
27.19
27.17
27.17
27.17
27.17
27.19
27.19
27.19
27.19
27.19
27.19
27.19
27.19
27.19
27.19
27.19
27.19
27.17
27.17
27.17
27.17
27.17
27.17
27.17
27.17
27.17
27.17
27.17
27.17
27.17
27.17
27.17
27.17
27.17
27.17
27.17
27.17
27.19
27.19
27.19
27.19
27.13
27.13
27.13
27.13
27.15
27.15
27.15
27.15
27.15
27.15
27.15
27.15
27.19
27.19
27.19
27.19
27.19
27.19
27.19
27.19
27.23
27.23
27.23
27.23
27.23
27.23
27.23
27.23
27.23
27.23
27.23
27.23
27.25
27.25
27.25
27.25
27.27
27.27
27.27
27.27
27.23
27.23
27.23
27.23
27.21
27.21
27.21
27.21
